#"+EI Scan (rt: 2.649-2.702 min, 10 scans) R8M1.D  Subtract "
#Point,X(Thompsons),Y(Counts)
0,40.0993,4013.3232421875
1,41.0796,102009.03125
2,42.0800,13846.720703125
3,43.0895,76534.8828125
4,44.0401,7525.9453125
5,45.0321,3920.86987304688
6,45.9508,136.975082397461
7,46.0521,1065.07250976563
8,47.0571,18802.3515625
9,48.0100,570.807739257813
10,48.8100,70.439338684082
11,48.9200,106.982666015625
12,49.0133,81.619140625
13,50.0408,2914.40747070313
14,51.0443,9384.5087890625
15,52.0306,3447.83056640625
16,53.0585,8820.1806640625
17,54.0600,5937.28466796875
18,55.0789,49791.30859375
19,56.0588,18061.0625
20,57.0420,3138.16552734375
21,58.1300,2221.77099609375
22,59.0389,63550.2578125
23,60.0253,4432.60693359375
24,61.0498,5395.29248046875
25,62.0193,8222.0673828125
26,63.0298,11824.5966796875
27,64.0277,5488.40185546875
28,65.0283,6006.88671875
29,66.0269,1726.12390136719
30,67.0593,10019.298828125
31,68.1003,5270.77880859375
32,69.0686,72704.5
33,70.0795,19589.4140625
34,71.0796,33326.390625
35,72.0702,13064.8701171875
36,73.0480,12448.2333984375
37,74.0342,2788.60620117188
38,75.0361,12551.025390625
39,76.0402,27577.3203125
40,77.0368,48515.23828125
41,78.0342,10425.923828125
42,79.0144,2220.50854492188
43,79.8252,41.5563125610352
44,79.9400,246.166549682617
45,80.0396,227.087951660156
46,81.0027,2684.14965820313
47,82.0509,2266.4931640625
48,83.0474,6386.611328125
49,83.9564,244.394805908203
50,84.0600,1629.14990234375
51,84.1786,66.4187316894531
52,85.0320,3163.35180664063
53,86.0193,2894.29809570313
54,87.0499,10355.7548828125
55,88.0400,70452.1796875
56,89.0400,56446.74609375
57,90.0398,125551.5703125
58,91.0288,18877.609375
59,92.0298,4286.4921875
60,93.0103,906.599365234375
61,93.1900,271.914978027344
62,93.6600,157.257904052734
63,93.9001,65.58837890625
64,94.0100,260.763244628906
65,94.1306,1.42881011962891
66,95.0211,799.020324707031
67,96.0064,1142.92138671875
68,96.9200,245.068084716797
69,97.0407,753.679809570313
70,97.1316,344.491394042969
71,98.0598,17209.6875
72,99.0310,1342.53247070313
73,99.1114,873.463439941406
74,99.8200,257.078186035156
75,99.9189,574.86181640625
76,100.0220,1070.34375
77,100.1800,424.719909667969
78,101.0471,6082.53173828125
79,102.0401,69938.9609375
80,103.0397,193543.234375
81,104.0300,60069.93359375
82,105.0489,7261.71728515625
83,106.0000,257.061248779297
84,106.1600,1210.29516601563
85,106.3900,488.752532958984
86,106.5600,353.864471435547
87,106.7289,782.428161621094
88,106.8500,28.177734375
89,107.0000,234.870162963867
90,107.0931,189.54052734375
91,107.2793,594.060119628906
92,107.6700,362.775054931641
93,107.8489,175.375274658203
94,107.9600,165.718536376953
95,109.0165,2485.03344726563
96,109.8839,91.5628051757813
97,110.0221,418.729797363281
98,111.0800,535.511352539063
99,111.8750,147.504089355469
100,112.0536,82.4405517578125
101,113.3100,176.668746948242
102,113.4400,433.334381103516
103,113.6400,3417.20190429688
104,113.8427,1374.79016113281
105,114.0709,942.159912109375
106,115.0383,9215.603515625
107,116.0395,15656.681640625
108,117.0390,66564.4609375
109,118.0400,22010.119140625
110,119.0492,6505.30615234375
111,119.9806,587.837219238281
112,120.0700,547.931274414063
113,120.9309,424.989044189453
114,121.0124,3547.97778320313
115,121.8511,70.5588531494141
116,122.0600,460.989776611328
117,122.9828,659.898559570313
118,123.8200,48.2846450805664
119,123.9792,96.8156356811523
120,124.1000,84.125373840332
121,124.9589,34.9579772949219
122,125.0500,331.044250488281
123,125.6900,24.7600440979004
124,125.9433,505.49169921875
125,126.1800,81.4223098754883
126,127.0200,3695.19970703125
127,128.0464,9796.5537109375
128,129.0392,88306.7578125
129,130.0597,114909.375
130,131.0499,256928.6875
131,132.0600,33755.0078125
132,133.0266,3979.59252929688
133,133.7700,31.167501449585
134,133.9540,353.391143798828
135,134.1800,473.677581787109
136,134.3400,71.3816375732422
137,134.8300,255.48078918457
138,134.9921,1125.041015625
139,136.0342,569.187622070313
140,136.1300,145.448516845703
141,137.0166,19474.259765625
142,137.9934,2064.421875
143,138.9742,1484.60778808594
144,139.7928,50.1475868225098
145,139.9956,794.648193359375
146,141.0057,2641.3466796875
147,142.0490,7336.39892578125
148,143.0480,20269.587890625
149,144.0572,42562.23828125
150,145.0400,740805.6875
151,146.0400,73899.53125
152,147.0384,6301.65283203125
153,147.9400,407.513732910156
154,148.0567,716.810852050781
155,149.0132,2715.62646484375
156,149.9304,102.24658203125
157,150.0400,257.56884765625
158,150.8125,63.5705680847168
159,150.9727,878.617126464844
160,152.1100,1333.93969726563
161,152.2793,87.1956939697266
162,152.6800,95.6902847290039
163,152.8475,209.592102050781
164,153.0100,296.063934326172
165,153.1000,90.8992462158203
166,153.9700,301.983367919922
167,154.0796,1504.85534667969
168,155.0231,7725.4931640625
169,156.0579,11046.7900390625
170,157.0660,21238.83203125
171,158.0598,36245.6015625
172,159.0029,16370.166015625
173,160.0495,4993.041015625
174,161.0352,12006.806640625
175,161.9300,124.129051208496
176,162.0461,1524.5390625
177,162.9900,1760.10034179688
178,163.8100,85.8730010986328
179,163.9693,253.82243347168
180,164.1183,98.8856811523438
181,165.0269,1240.19775390625
182,165.6946,7.36042213439941
183,165.9157,101.269523620605
184,166.0210,364.210632324219
185,166.1200,48.7920303344727
186,167.0100,2570.84887695313
187,168.0800,2894.53955078125
188,169.0671,5184.30517578125
189,169.9082,18.6221466064453
190,170.0497,5060.84765625
191,171.0600,34428.74609375
192,172.0600,11591.7880859375
193,173.0699,5760.2568359375
194,174.0700,108806.5546875
195,175.0699,69196.203125
196,176.0700,9439.4794921875
197,177.0396,81213.984375
198,178.0499,9148.869140625
199,178.9669,823.71484375
200,179.0677,185.160522460938
201,179.7600,32.6429557800293
202,179.9870,363.581634521484
203,180.8700,137.775833129883
204,180.9864,730.410705566406
205,181.1000,235.614624023438
206,181.9730,553.238708496094
207,182.1000,515.390502929688
208,182.9706,34.2974243164063
209,183.1000,3550.41870117188
210,184.0700,5349.19189453125
211,185.0888,28051.953125
212,186.0700,10275.33984375
213,187.0696,4442.42041015625
214,188.0600,1817.51989746094
215,189.0319,1370.80297851563
216,189.8719,88.9920654296875
217,190.0200,315.074462890625
218,190.1800,48.0260467529297
219,190.8191,328.052001953125
220,190.9747,388.234008789063
221,191.8850,109.517456054688
222,192.0500,339.576538085938
223,192.9645,822.005615234375
224,193.8599,66.7134704589844
225,193.9775,208.530242919922
226,194.1100,27.1133995056152
227,194.9839,1292.32800292969
228,196.0409,1062.8310546875
229,196.9812,1381.93298339844
230,197.9597,400.129272460938
231,198.0600,1094.97729492188
232,199.0700,9979.412109375
233,200.0682,5637.37255859375
234,201.0273,4672.28271484375
235,201.9979,1094.09191894531
236,202.1118,518.526000976563
237,203.0600,7344.6884765625
238,204.0680,1802.77319335938
239,205.0797,4948.2109375
240,206.1056,1558.56298828125
241,206.1900,152.359222412109
242,207.0016,601.776733398438
243,207.1300,830.283081054688
244,207.9279,78.2544708251953
245,208.0500,373.64990234375
246,209.0248,565.338256835938
247,209.9879,282.693786621094
248,210.0800,1056.11437988281
249,210.2169,100.748687744141
250,211.0137,5488.25634765625
251,212.0800,4116.373046875
252,213.1100,114236.5234375
253,214.1087,19655.2265625
254,215.0076,13909.232421875
255,216.0343,6275.32275390625
256,217.0082,2211.955078125
257,217.9982,293.345611572266
258,218.1076,292.133117675781
259,218.9433,2896.64892578125
260,220.0891,1855.45520019531
261,220.9400,233.479858398438
262,221.0400,613.856323242188
263,221.5500,24.4130268096924
264,221.8500,27.7871494293213
265,222.0032,323.435791015625
266,222.2300,32.8893203735352
267,222.8206,150.656616210938
268,222.9465,379.26611328125
269,223.7709,3.76365566253662
270,224.0512,262.915649414063
271,224.1900,64.2894439697266
272,224.7183,33.7583312988281
273,224.9286,271.7587890625
274,225.1010,247.734298706055
275,225.2500,88.6754608154297
276,225.8800,257.581726074219
277,226.0300,294.24462890625
278,226.1300,330.392059326172
279,226.3200,49.8507766723633
280,226.9198,210.680541992188
281,227.0500,729.101135253906
282,227.2500,115.892196655273
283,228.1001,11472.1787109375
284,229.0900,4981.24609375
285,230.0373,422.462707519531
286,230.1600,1894.84313964844
287,231.1091,18957.6640625
288,232.1000,5519.8154296875
289,233.1195,1534717.625
290,234.1094,235104.984375
291,235.1200,20648.74609375
292,235.9865,273.45849609375
293,236.1200,993.75439453125
294,236.9865,5616.94970703125
295,237.9812,1308.91101074219
296,238.8720,197.223388671875
297,238.9800,770.182312011719
298,239.6900,8.85843849182129
299,239.9249,215.904861450195
300,240.1200,223.585235595703
301,240.8850,231.644714355469
302,241.0076,626.683532714844
303,242.0061,276.164794921875
304,242.1500,563.640258789063
305,242.7778,111.404113769531
306,242.9200,269.856689453125
307,243.0834,88.3422317504883
308,243.2500,36.0575332641602
309,243.9708,622.680114746094
310,244.1100,497.019439697266
311,244.2200,34.0798835754395
312,245.0128,597.340881347656
313,245.1600,280.691802978516
314,246.1199,6714.345703125
315,247.0700,367.531494140625
316,247.1500,8696.3212890625
317,248.1200,4534.015625
318,249.1299,165809.9375
319,250.1400,25796.322265625
320,251.0800,1624.78979492188
321,251.1600,825.814086914063
322,251.8600,45.3220901489258
323,252.0500,184.633514404297
324,252.8100,168.518997192383
325,253.0414,104.780227661133
326,253.6300,16.2281188964844
327,253.7500,68.2372894287109
328,253.9626,71.3301773071289
329,254.1400,96.1948699951172
330,254.3500,49.4299812316895
331,254.8685,103.465347290039
332,255.0597,204.785491943359
333,255.2400,26.7987403869629
334,255.9800,203.871200561523
335,256.1200,754.175598144531
336,256.9428,236.373565673828
337,257.0448,281.055999755859
338,257.4300,50.5356750488281
339,257.9500,190.902801513672
340,258.1300,62.8965950012207
341,258.8500,37.1650466918945
342,259.0600,336.967102050781
343,259.1820,34.7176818847656
344,259.9670,180.426498413086
345,260.0993,971.974792480469
346,261.1600,11949.6513671875
347,262.1700,2562.65356445313
348,263.0682,651.506530761719
349,263.6600,20.0301284790039
350,263.9000,35.0521965026855
351,264.6100,17.5407657623291
352,264.7600,77.3695831298828
353,265.0700,182.302597045898
354,265.2000,21.0254001617432
355,266.0500,59.7366714477539
356,266.1300,48.0178451538086
357,266.8337,13.7512493133545
358,267.0128,153.236999511719
359,267.1500,26.2375183105469
360,267.9300,24.0843181610107
361,268.0734,153.937454223633
362,268.1800,23.0954475402832
363,268.9994,387.788269042969
364,269.1000,42.9359970092773
365,269.7800,25.1353340148926
366,269.9919,17.8804588317871
367,270.1200,903.7529296875
368,270.2500,198.498596191406
369,270.9003,28.4950256347656
370,271.0343,538.291625976563
371,271.1800,143.472396850586
372,271.8900,99.0485534667969
373,272.1100,1271.16943359375
374,272.1900,192.086013793945
375,272.8934,138.177703857422
376,273.0043,902.556640625
377,274.1300,2796.67553710938
378,274.9686,663.825561523438
379,275.1000,783.466918945313
380,275.7700,57.2884941101074
381,275.9128,30.6964416503906
382,276.0172,157.743881225586
383,276.1800,143.918609619141
384,276.9265,321.518890380859
385,277.0600,118.084190368652
386,277.8033,14.7800712585449
387,277.9560,210.574295043945
388,278.1073,307.542358398438
389,278.8440,215.520721435547
390,278.9804,83.8150787353516
391,279.1600,17.4075927734375
392,279.9200,20.6009101867676
393,280.0700,52.914421081543
394,280.8748,181.806747436523
395,281.0287,83.968994140625
396,281.2700,35.1796493530273
397,281.9400,83.9971923828125
398,282.1131,295.576507568359
399,282.8800,41.5303382873535
400,283.0450,211.138641357422
401,283.9900,30.6626052856445
402,284.1606,3043.75927734375
403,285.1000,1511.333984375
404,286.1381,2433.51220703125
405,287.0978,911.53564453125
406,287.2800,57.727710723877
407,288.1468,11482.1025390625
408,289.1000,19603.083984375
409,290.1000,3884.52685546875
410,291.0424,813.667541503906
411,291.1600,115.083656311035
412,291.8000,44.1407585144043
413,291.9523,120.592926025391
414,292.0700,61.2963981628418
415,292.2000,18.1665668487549
416,292.9695,2068.97875976563
417,293.9478,217.509735107422
418,294.0600,279.00048828125
419,294.8473,149.771453857422
420,294.9679,165.089477539063
421,295.0600,189.130249023438
422,295.6816,5.64418983459473
423,296.0300,103.895278930664
424,296.1700,139.83528137207
425,296.9548,600.549682617188
426,297.6700,22.4662284851074
427,297.8500,195.986846923828
428,297.9708,63.3166542053223
429,298.7200,105.606727600098
430,298.8952,6.08882904052734
431,299.0138,115.248611450195
432,299.1548,66.8374481201172
433,299.8200,119.573631286621
434,300.0100,127.709327697754
435,300.1900,278.854583740234
436,300.4300,34.6631011962891
437,300.7629,64.22314453125
438,300.9462,125.070175170898
439,301.0993,318.059692382813
440,302.0500,153.238952636719
441,302.1600,3024.75927734375
442,303.1590,4229.28759765625
443,304.2000,694256.4375
444,305.1900,134480.171875
445,306.1800,14094.224609375
446,306.9867,539.842468261719
447,307.1800,841.660949707031
448,307.8609,43.2309799194336
449,308.1100,171.757369995117
450,308.8400,15.7865877151489
451,309.0600,54.861011505127
452,309.3500,20.8718910217285
453,310.0800,23.3470287322998
454,310.5600,15.6477794647217
455,310.8600,50.6389579772949
456,310.9680,101.956115722656
457,311.1400,101.855979919434
458,311.9500,23.6942081451416
459,312.1240,132.223892211914
460,312.8200,47.6997871398926
461,313.0500,51.5092086791992
462,313.1500,54.7771492004395
463,314.0100,77.205078125
464,314.6200,18.5667266845703
465,314.7200,86.7655181884766
466,314.8977,57.730525970459
467,315.0573,261.496520996094
468,316.1399,5955.12158203125
469,317.0807,758.384338378906
470,317.1600,713.085327148438
471,318.0900,155.950927734375
472,318.2300,165.668869018555
473,318.9600,31.7053737640381
474,319.0900,250.400344848633
475,319.2300,28.0350246429443
476,320.1394,13807.896484375
477,321.1500,13618.103515625
478,321.9300,81.6256942749023
479,322.0800,316.566711425781
480,322.1700,2190.24560546875
481,323.1300,255.1728515625
482,324.1200,40.7357711791992
483,325.0800,55.692024230957
484,325.3200,19.8558807373047
485,326.2500,16.3336143493652
486,326.6600,60.9548110961914
487,327.0300,38.5609092712402
488,328.0200,37.4754104614258
489,328.1700,92.3740997314453
490,328.6700,24.2396812438965
491,328.9203,34.9845962524414
492,329.1000,151.084075927734
493,329.2600,67.9902725219727
494,329.8800,20.9433097839355
495,330.0500,218.075164794922
496,330.1900,995.362182617188
497,331.1500,7297.5078125
498,332.1500,3423.935546875
499,333.0305,351.865447998047
500,333.1100,345.06005859375
501,333.7500,18.9184761047363
502,334.0900,533.453796386719
503,334.2600,277.469940185547
504,334.9400,224.598114013672
505,335.3500,18.4264850616455
506,336.0300,19.9896831512451
507,336.8200,44.6492156982422
508,336.9376,26.2350082397461
509,339.0400,20.887035369873
510,340.8900,18.4045810699463
511,342.1400,426.231781005859
512,343.0200,126.391700744629
513,343.1800,683.42138671875
514,343.9410,67.7601165771484
515,344.2900,30.0212898254395
516,344.9671,25.0843963623047
517,345.1440,344.889709472656
518,345.2800,96.410888671875
519,346.0200,331.897888183594
520,346.1682,370.526458740234
521,347.0900,293.817321777344
522,347.2900,21.7950210571289
523,347.9200,28.0547542572021
524,348.1300,1217.41369628906
525,348.2100,554.337097167969
526,348.3700,22.6231937408447
527,348.8521,38.2755508422852
528,348.9814,135.135925292969
529,349.1600,373.733703613281
530,349.9800,146.840728759766
531,350.1100,67.3701934814453
532,350.7400,33.8146743774414
533,350.8900,67.5029144287109
534,350.9840,23.6271438598633
535,352.0900,50.0724601745605
536,352.7300,77.5328979492188
537,352.8462,7.98402786254883
538,352.9729,64.4940185546875
539,353.1300,32.6676979064941
540,354.9326,25.8793106079102
541,355.0800,20.533203125
542,356.0700,51.2538146972656
543,356.2100,39.1788139343262
544,356.8200,26.8904056549072
545,357.1300,33.2341804504395
546,358.9500,93.6184539794922
547,359.1500,17.22585105896
548,359.9400,24.915210723877
549,360.1500,21.5982418060303
550,360.8600,42.1543045043945
551,360.9900,47.1293258666992
552,361.1700,48.939338684082
553,362.0100,47.2904434204102
554,362.1400,1445.08569335938
555,363.2200,78522.9765625
556,364.2100,17797.37109375
557,365.1300,302.669281005859
558,365.2100,2246.76489257813
559,365.9900,24.8621711730957
560,366.1000,25.8401222229004
561,366.1900,185.927520751953
562,366.8386,28.7331390380859
563,367.0500,114.976623535156
564,367.2100,16.017017364502
565,368.8800,19.4054660797119
566,369.0800,23.2750244140625
567,370.9000,32.1437606811523
568,371.0577,105.546890258789
569,373.8600,15.2477016448975
570,376.2600,18.1799736022949
571,377.2400,41.2256355285645
572,378.3500,15.2626113891602
573,384.7700,18.2554168701172
574,387.1300,26.6320610046387
575,389.8200,17.2382392883301
576,394.5900,17.3055229187012
577,400.9700,53.634651184082
578,401.1682,10.9589414596558
579,403.0800,26.0288696289063
580,404.7800,18.0716648101807
581,404.8900,18.838342666626
582,405.0200,44.2993392944336
583,408.6500,22.1616401672363
584,408.9500,21.4140472412109
585,409.9741,7.78014755249023
586,410.2542,3.13798141479492
587,427.2200,16.061351776123
588,483.0600,21.6712226867676
