#"+EI Scan (rt: 2.644-2.702 min, 11 scans) R10M1.D  Subtract "
#Point,X(Thompsons),Y(Counts)
0,40.1000,3923.68334960938
1,41.0795,91580.9921875
2,42.0900,12219.53125
3,43.0898,69985.34375
4,44.0323,7040.1630859375
5,45.0277,3513.634765625
6,45.8600,43.235782623291
7,46.0000,351.91650390625
8,46.0900,825.201904296875
9,47.0493,17058.408203125
10,47.9500,129.59358215332
11,48.0400,385.90283203125
12,48.8900,119.864852905273
13,49.0600,33.540828704834
14,49.1800,42.6386375427246
15,50.0278,2404.04711914063
16,51.0400,7766.03271484375
17,51.8200,77.1769638061523
18,52.0500,3195.71655273438
19,53.0600,8211.583984375
20,54.0200,1471.13549804688
21,54.0828,3710.73999023438
22,55.0785,44715.390625
23,56.0587,15338.4951171875
24,57.0568,4058.29638671875
25,57.8400,59.3571510314941
26,58.1336,2046.23815917969
27,59.0400,54571.3125
28,60.0311,4207.7802734375
29,60.9500,88.4992294311523
30,61.0500,4626.564453125
31,62.0286,7464.03271484375
32,63.0196,10167.2119140625
33,64.0200,4994.52001953125
34,64.9800,1204.0625
35,65.0595,3997.03149414063
36,65.8900,174.927108764648
37,66.0131,1261.671875
38,66.1000,137.755157470703
39,67.0569,8718.1083984375
40,68.0600,4370.7158203125
41,69.0681,61142.796875
42,70.0700,16763.083984375
43,71.0790,28631.404296875
44,72.0888,10739.2470703125
45,73.0620,10911.1005859375
46,74.0434,2701.3076171875
47,75.0234,10219.7392578125
48,76.0393,24291.703125
49,77.0368,42536.39453125
50,78.0318,9726.447265625
51,79.0200,2456.94702148438
52,79.8800,228.645278930664
53,80.0067,260.688262939453
54,80.1600,94.6835479736328
55,80.9821,2433.85302734375
56,81.9721,327.650543212891
57,82.0500,1571.87121582031
58,83.0350,5398.3017578125
59,83.9800,650.864807128906
60,84.1000,1317.63916015625
61,85.0250,2511.21484375
62,86.0100,2753.30102539063
63,87.0400,8226.12109375
64,88.0300,60539.75390625
65,89.0504,49305.70703125
66,90.0401,107682.2109375
67,91.0513,15880.708984375
68,91.9000,89.2505187988281
69,92.0300,3742.79858398438
70,92.7100,41.1860656738281
71,93.0800,572.332824707031
72,93.1900,204.900054931641
73,93.8300,32.2446441650391
74,93.9642,225.847106933594
75,94.0800,171.175384521484
76,95.0200,583.094604492188
77,95.1000,84.8232727050781
78,96.0063,752.315307617188
79,96.9000,61.070556640625
80,97.0229,948.1767578125
81,98.0588,14585.2744140625
82,99.0464,1829.44934082031
83,99.1853,113.929565429688
84,99.9000,321.96044921875
85,100.0400,1508.37292480469
86,101.0485,5181.5078125
87,102.0400,61537.359375
88,103.0399,169622.578125
89,104.0403,52186.33984375
90,105.0395,6278.61474609375
91,106.0500,901.364685058594
92,106.2100,229.960296630859
93,106.5100,267.856414794922
94,106.6100,980.518188476563
95,106.7400,237.802993774414
96,107.0200,44.7497711181641
97,107.1700,774.053283691406
98,107.3100,49.3020782470703
99,107.5500,378.520965576172
100,107.7000,76.2483062744141
101,107.8000,67.9150695800781
102,108.0900,217.41015625
103,109.0168,2713.66748046875
104,109.9383,169.81640625
105,110.0700,153.682312011719
106,110.8400,114.305046081543
107,110.9500,182.762054443359
108,111.0455,72.652099609375
109,112.1400,108.146797180176
110,112.8100,69.9438629150391
111,113.1500,156.350646972656
112,113.3900,195.094482421875
113,113.5000,109.916305541992
114,113.7000,841.307189941406
115,113.8000,3250.1474609375
116,114.0200,156.432312011719
117,115.0493,8187.45361328125
118,116.0279,13795.2333984375
119,117.0405,55326.05859375
120,118.0600,19100.02734375
121,119.0500,5735.54296875
122,119.7800,94.3525085449219
123,119.9500,458.026184082031
124,120.0600,537.464904785156
125,120.2400,35.9898414611816
126,120.8800,69.7452545166016
127,121.0293,3341.1328125
128,121.9600,334.397583007813
129,122.0800,171.360107421875
130,122.7200,57.6987152099609
131,122.9528,159.811950683594
132,123.9200,131.504608154297
133,124.1000,43.3147125244141
134,124.2500,19.8692760467529
135,124.9283,93.2076416015625
136,125.0000,185.689697265625
137,125.9300,201.155654907227
138,126.0600,568.5302734375
139,127.0200,3120.26416015625
140,128.0500,9458.2958984375
141,129.0400,74498.921875
142,130.0606,97396.5
143,131.0499,218041
144,132.0600,29592.1796875
145,133.0259,3703.634765625
146,133.9087,26.4504928588867
147,134.0300,357.708099365234
148,134.1400,200.551696777344
149,134.2800,93.0162811279297
150,135.0047,1426.98681640625
151,135.9477,118.692352294922
152,136.0800,626.21875
153,137.0068,18486.607421875
154,137.9736,671.178955078125
155,138.0500,1449.00158691406
156,139.0300,2305.20483398438
157,139.9769,577.265075683594
158,140.0900,411.392700195313
159,140.9874,1722.10229492188
160,141.9261,14.9845886230469
161,142.0500,6227.34814453125
162,143.0600,18165.814453125
163,144.0597,36670.30078125
164,145.0400,628540
165,146.0500,62130.42578125
166,147.0200,5562.353515625
167,148.0100,506.725402832031
168,148.0800,503.343658447266
169,149.0200,2186.51513671875
170,149.8400,31.4483280181885
171,149.9700,187.987548828125
172,150.1300,182.669082641602
173,151.0200,1156.94763183594
174,151.9708,28.2236022949219
175,152.0800,1470.42272949219
176,152.7800,67.1323852539063
177,152.9140,120.510986328125
178,153.0600,394.777648925781
179,153.1600,62.642635345459
180,153.6600,14.3077812194824
181,154.0342,1803.90307617188
182,154.1700,15.0928182601929
183,155.0290,6816.5302734375
184,156.0589,9426.541015625
185,157.0654,17963.82421875
186,158.0608,30389.478515625
187,159.0098,13562.169921875
188,159.9940,660.272399902344
189,160.0600,3345.3740234375
190,161.0500,10690.779296875
191,161.9000,124.903877258301
192,162.0300,1253.88513183594
193,162.2800,40.2994575500488
194,162.9389,765.460693359375
195,163.0400,305.827514648438
196,163.9300,323.133422851563
197,164.0400,181.735198974609
198,164.9323,239.721282958984
199,165.0550,579.046936035156
200,165.9400,285.902374267578
201,166.0500,229.333801269531
202,166.9938,1817.91186523438
203,167.9600,252.858596801758
204,168.0518,2575.36206054688
205,169.0600,5009.3115234375
206,170.0500,4418.7412109375
207,171.0584,28104.7578125
208,172.0700,10051.349609375
209,172.8700,86.5725326538086
210,173.0600,4690.21630859375
211,174.0702,91448.5859375
212,175.0698,57093.13671875
213,176.0600,7923.4345703125
214,177.0400,67882.4375
215,177.9240,52.7352294921875
216,178.0400,7350.896484375
217,178.9306,33.0530853271484
218,179.0400,798.746887207031
219,179.9300,82.86376953125
220,180.0100,345.608032226563
221,180.9031,380.800018310547
222,180.9800,1069.33190917969
223,182.0500,1185.31591796875
224,182.9706,1094.69641113281
225,183.1100,1940.28198242188
226,183.9887,639.820861816406
227,184.0700,4170.92529296875
228,185.0800,24076.982421875
229,186.0695,8511.013671875
230,186.9300,257.994018554688
231,187.0608,3571.1318359375
232,187.7900,63.5699501037598
233,188.0300,1009.65216064453
234,188.1100,446.210144042969
235,189.0000,932.783752441406
236,189.0900,191.628601074219
237,189.9500,125.364524841309
238,190.0300,195.761459350586
239,191.0115,783.289245605469
240,191.9000,233.884857177734
241,192.0175,190.646820068359
242,192.9988,1114.86926269531
243,193.7300,17.5147171020508
244,193.9413,247.123687744141
245,194.0900,47.5772666931152
246,194.9564,1617.19702148438
247,195.6800,38.7417106628418
248,195.9100,503.749877929688
249,196.9800,1775.04833984375
250,197.9703,220.585235595703
251,198.0700,1233.94970703125
252,199.0600,8232.583984375
253,199.9575,145.543426513672
254,200.0600,4782.966796875
255,201.0105,3665.77026367188
256,201.9400,179.141204833984
257,202.0315,1038.23779296875
258,203.1000,6736.36279296875
259,203.9490,23.7475204467773
260,204.1000,1610.79724121094
261,205.0400,1143.84130859375
262,205.1000,2921.31811523438
263,205.9300,117.569915771484
264,206.1000,1490.46166992188
265,207.0319,1272.95178222656
266,208.0100,719.209838867188
267,208.1200,33.1547088623047
268,208.8800,69.5012969970703
269,209.0184,163.059997558594
270,209.1400,95.6405563354492
271,209.9100,109.620231628418
272,210.0600,1301.75500488281
273,210.2100,70.6273727416992
274,210.9972,4791.44287109375
275,212.0419,3692.49658203125
276,213.0998,95329.2109375
277,214.1074,16773.29296875
278,215.0008,12734.189453125
279,216.0600,6659.3154296875
280,216.9982,2031.60864257813
281,217.9100,80.0806198120117
282,218.0200,492.498352050781
283,218.9587,2058.2255859375
284,219.8900,74.7832870483398
285,220.0242,1547.24719238281
286,220.9435,108.014038085938
287,221.0600,827.296325683594
288,221.8000,94.798210144043
289,222.0800,152.351348876953
290,222.7800,135.411819458008
291,222.9294,330.884338378906
292,223.6700,79.1072692871094
293,223.8100,83.7807312011719
294,224.0200,167.923538208008
295,224.1300,81.3374099731445
296,224.3000,51.1865577697754
297,224.5000,28.1789836883545
298,224.8900,228.625045776367
299,225.0005,12.1010131835938
300,225.1200,279.367767333984
301,225.2300,26.9598255157471
302,226.0300,402.469635009766
303,226.1500,364.832153320313
304,226.8800,150.917419433594
305,226.9878,595.279724121094
306,227.1700,197.207077026367
307,228.1100,9802.5888671875
308,229.0600,2530.00048828125
309,229.1400,2055.20288085938
310,230.1080,1972.66870117188
311,231.0994,16246.8203125
312,232.1044,8267.931640625
313,233.1194,1293104.625
314,234.1200,202456.484375
315,235.1100,17831.064453125
316,235.9400,51.1821250915527
317,236.0900,1312.56311035156
318,236.9769,6109.4921875
319,237.8700,444.325714111328
320,237.9874,748.241821289063
321,238.9667,1388.68408203125
322,239.9900,308.815399169922
323,240.1600,206.576431274414
324,240.9636,308.050354003906
325,241.0500,400.461151123047
326,241.8900,152.249496459961
327,242.0412,376.543701171875
328,242.1500,213.713439941406
329,242.9200,133.227798461914
330,243.0533,261.487762451172
331,244.0100,801.995056152344
332,244.1276,78.4969329833984
333,244.9777,336.872467041016
334,245.1100,423.614959716797
335,246.0300,824.574584960938
336,246.1200,5162.72509765625
337,247.1300,7320.24072265625
338,247.1900,160.515197753906
339,247.9900,85.7492218017578
340,248.1100,3534.99755859375
341,249.1300,136143.5625
342,250.1300,21433.779296875
343,251.0300,185.572998046875
344,251.1200,1906.59765625
345,251.9800,228.759582519531
346,252.1400,49.4644660949707
347,252.6600,62.312313079834
348,252.8242,80.142578125
349,253.0034,77.6535720825195
350,253.1200,35.5513648986816
351,253.7000,33.4737548828125
352,253.8900,17.4652729034424
353,254.0100,200.162292480469
354,254.1300,42.042179107666
355,254.6800,49.0676422119141
356,254.9000,250.695022583008
357,256.0000,212.615325927734
358,256.1200,534.168395996094
359,256.2700,20.4484329223633
360,256.9500,276.281616210938
361,257.0900,234.310104370117
362,257.9647,118.238723754883
363,258.0800,131.095062255859
364,258.7600,15.7728643417358
365,258.8800,38.9914169311523
366,259.0100,89.3916091918945
367,259.0700,276.810577392578
368,259.2100,106.129981994629
369,259.9200,112.841682434082
370,260.1400,1112.0615234375
371,261.0500,113.761917114258
372,261.1600,10195.2880859375
373,262.0800,270.944213867188
374,262.1600,2217.37451171875
375,262.9200,136.044631958008
376,263.0700,277.277160644531
377,263.2300,89.3023376464844
378,263.8400,16.8199329376221
379,263.9500,56.6289405822754
380,264.0800,35.4441566467285
381,264.7200,19.3552055358887
382,265.0000,143.531112670898
383,265.1000,78.2714996337891
384,265.9400,91.4728698730469
385,266.1100,53.3571014404297
386,266.6800,13.8069763183594
387,266.8100,47.7066650390625
388,266.9300,207.663558959961
389,267.1300,76.7468566894531
390,267.8800,54.9847679138184
391,267.9700,107.875114440918
392,268.1200,46.7424049377441
393,268.9369,214.332153320313
394,269.1000,134.063171386719
395,269.8400,56.9328956604004
396,269.9800,46.02197265625
397,270.1200,642.3935546875
398,270.2800,68.0642700195313
399,271.0105,925.966369628906
400,272.0800,1051.533203125
401,272.1700,280.48388671875
402,273.0500,820.281494140625
403,274.0000,39.6575241088867
404,274.1300,2391.62133789063
405,274.9500,424.336486816406
406,275.0600,1364.38610839844
407,275.8600,107.010665893555
408,276.1034,216.142486572266
409,276.8500,419.441314697266
410,277.8300,44.985897064209
411,278.0100,156.470520019531
412,278.1125,208.697998046875
413,278.5100,53.8005599975586
414,278.8416,58.54833984375
415,278.9965,35.6561737060547
416,279.2800,36.9542503356934
417,279.9600,81.0362167358398
418,280.9656,340.201232910156
419,281.9300,43.6376953125
420,282.0500,227.729385375977
421,282.1300,106.235939025879
422,282.9600,116.180145263672
423,283.1600,55.3042640686035
424,284.1500,2214.90991210938
425,284.2300,538.6259765625
426,285.0600,2135.32983398438
427,286.1400,2350.06860351563
428,286.9000,65.0020065307617
429,287.0200,150.040466308594
430,287.1200,1018.14135742188
431,287.2400,117.261360168457
432,288.1378,10648.4013671875
433,289.0406,3303.94897460938
434,289.1300,13092.91796875
435,290.0000,511.972961425781
436,290.1200,2676.1171875
437,290.9040,103.740783691406
438,291.0400,512.543212890625
439,291.8838,17.7671737670898
440,292.1100,158.683731079102
441,292.9763,1604.4892578125
442,293.9789,432.346038818359
443,294.0900,114.613227844238
444,294.8700,269.114227294922
445,295.8300,103.447334289551
446,296.0200,140.019058227539
447,296.1300,29.311279296875
448,296.7400,112.551445007324
449,296.9600,779.054870605469
450,297.0800,151.477767944336
451,297.6900,75.3839721679688
452,297.9458,117.289108276367
453,298.1000,113.706100463867
454,298.5200,43.1528091430664
455,298.8500,254.386032104492
456,299.1900,30.798511505127
457,299.9200,192.91064453125
458,300.0500,96.8325653076172
459,300.1809,105.875244140625
460,300.4000,38.9371032714844
461,300.8600,181.070617675781
462,300.9300,124.336082458496
463,301.0500,72.3802947998047
464,301.2200,117.700836181641
465,301.9300,25.1248760223389
466,302.0753,916.222595214844
467,302.2000,1515.19604492188
468,302.4100,54.9636077880859
469,303.1500,3576.41943359375
470,304.1800,557618.5625
471,305.1899,110612.671875
472,306.1800,12076.6416015625
473,307.0180,28.7697982788086
474,307.1300,1089.66613769531
475,308.0100,196.882064819336
476,308.1300,31.747278213501
477,308.9400,35.9648780822754
478,309.1300,13.9806814193726
479,309.8500,17.5575733184814
480,310.7900,53.2622184753418
481,310.9100,75.3275909423828
482,311.1099,204.915618896484
483,311.8000,28.0558471679688
484,311.9700,63.9302825927734
485,312.9700,36.7467880249023
486,314.2100,54.0952911376953
487,314.7700,79.281135559082
488,314.9300,239.853866577148
489,315.0900,36.3559188842773
490,316.0800,1150.00402832031
491,316.1500,4003.14038085938
492,316.9700,141.626998901367
493,317.1400,1047.39147949219
494,318.0100,133.94416809082
495,318.1500,104.573043823242
496,318.3100,36.1572380065918
497,319.0400,199.767776489258
498,319.1500,39.8414878845215
499,320.0700,1020.85668945313
500,320.1400,10666.09765625
501,321.1500,11237.2109375
502,322.1200,1901.22192382813
503,323.1000,339.705139160156
504,323.9400,15.0656595230103
505,324.1000,65.7286071777344
506,325.1500,16.7659912109375
507,326.8900,26.0724563598633
508,327.1200,38.3757591247559
509,327.9700,53.2594566345215
510,328.1700,57.73095703125
511,328.2700,17.6232204437256
512,328.9000,32.2198600769043
513,329.0100,61.0857162475586
514,329.2500,20.7696304321289
515,329.9400,22.1304397583008
516,330.1300,868.534790039063
517,330.2100,290.937286376953
518,331.1600,6271.77001953125
519,332.1600,3045.44995117188
520,332.9700,27.9197463989258
521,333.1400,385.641967773438
522,333.2200,257.689575195313
523,333.9400,25.1363830566406
524,334.0700,331.331420898438
525,334.2200,51.3416633605957
526,334.2900,186.390151977539
527,334.7700,19.1444225311279
528,334.9900,83.9999465942383
529,335.3100,26.8346252441406
530,336.8500,38.9176483154297
531,341.9500,28.3464832305908
532,342.2500,207.961364746094
533,343.0300,157.910659790039
534,343.1300,360.592193603516
535,343.2100,149.848434448242
536,343.9400,31.2150268554688
537,344.1100,119.724586486816
538,344.2700,47.6674957275391
539,344.8000,27.9846496582031
540,345.0900,458.117279052734
541,345.2700,59.4975700378418
542,346.0000,92.8342590332031
543,346.1800,383.482299804688
544,346.2900,59.2326202392578
545,347.1100,206.437652587891
546,347.2500,121.403144836426
547,348.1300,1142.91955566406
548,348.2400,293.964965820313
549,348.8900,51.4762344360352
550,348.9973,350.161865234375
551,349.9300,109.461906433105
552,350.3000,15.2355899810791
553,350.7900,38.1587677001953
554,350.9800,45.8580322265625
555,351.1200,74.2543869018555
556,352.8200,89.7081527709961
557,353.0000,201.427001953125
558,353.9700,35.0492057800293
559,354.9500,52.1235237121582
560,355.1400,17.0583038330078
561,356.4200,17.1796283721924
562,356.7200,17.8403854370117
563,359.0600,31.0170001983643
564,361.0000,73.3196716308594
565,361.1700,39.4345703125
566,362.1000,222.783981323242
567,362.2000,1041.33081054688
568,363.2200,65661.734375
569,364.0700,224.798934936523
570,364.2097,14209.5576171875
571,365.2200,1911.13195800781
572,366.0000,49.9166221618652
573,366.1500,189.288711547852
574,366.9100,72.2255096435547
575,367.0400,60.8963165283203
576,367.1500,44.7751007080078
577,367.9100,14.1679801940918
578,369.0900,19.1254367828369
579,370.8300,14.7472877502441
580,371.0000,52.246753692627
581,371.1400,14.7877311706543
582,371.8300,17.8588542938232
583,376.9600,29.8903484344482
584,377.1200,68.27783203125
585,378.8800,17.4803123474121
586,383.1300,13.960129737854
587,384.8500,15.8545808792114
588,386.9500,49.5556297302246
589,388.8600,25.0896072387695
590,400.7700,16.1994800567627
591,401.1000,41.7083168029785
592,402.0400,40.7421531677246
593,402.2700,14.3664083480835
594,407.1100,16.4198970794678
595,444.1200,17.4239044189453
596,448.9400,16.112850189209
