#"+EI Scan (rt: 3.005-3.069 min, 12 scans) R2M3.D  Subtract "
#Point,X(Thompsons),Y(Counts)
0,40.1,1981.07263183594
1,41.1,51348.046875
2,42.1,8867.4091796875
3,43.1,38894.7890625
4,44.0,30203.35546875
5,45.0,2289.3447265625
6,46.0,231.729583740234
7,46.1,74.7471237182617
8,47.1,60.2909278869629
9,48.9,86.7666015625
10,49.0,93.9697494506836
11,50.0,433.656860351563
12,50.1,706.48046875
13,51.0,3778.07836914063
14,52.0,1509.84106445313
15,53.0,3944.15380859375
16,54.0,1920.88513183594
17,55.1,13500.0869140625
18,56.1,4926.8466796875
19,57.1,36889.27734375
20,58.1,3163.9931640625
21,58.2,72.6682662963867
22,59.0,3220.9736328125
23,60.1,254.342834472656
24,60.8,65.420539855957
25,60.9,88.6211242675781
26,61.0,276.626678466797
27,61.1,59.7690467834473
28,62.0,2860.3984375
29,63.0,5118.0068359375
30,64.0,2188.86694335938
31,65.0,683.727783203125
32,65.0,1952.33996582031
33,66.0,572.482055664063
34,66.1,274.057739257813
35,67.1,2677.41381835938
36,68.0,185.940612792969
37,68.1,1959.49206542969
38,69.1,16299.763671875
39,70.1,12422.171875
40,71.1,7511.4482421875
41,72.1,1910.77783203125
42,73.0,6133.6357421875
43,74.0,1340.65844726563
44,75.0,5006.86376953125
45,76.0,10963.0712890625
46,77.0,23337.62890625
47,78.0,5322.7998046875
48,79.0,1135.27563476563
49,79.9,28.5218276977539
50,80.1,343.642608642578
51,81.0,1149.70385742188
52,82.0,971.039001464844
53,82.1,458.684783935547
54,83.0,3324.35205078125
55,84.1,6724.43017578125
56,85.1,8174.04931640625
57,86.1,22444.4609375
58,87.1,4044.56176757813
59,88.0,25259.93359375
60,89.0,24344.8046875
61,90.0,54649.18359375
62,91.0,8929.857421875
63,92.0,2619.85400390625
64,92.9,297.322784423828
65,93.0,258.287750244141
66,93.9,95.3010864257813
67,94.1,239.933731079102
68,94.2,35.4518508911133
69,94.9,67.3177490234375
70,95.0,473.010498046875
71,96.1,787.374816894531
72,97.0,439.062042236328
73,97.1,263.369750976563
74,98.0,391.824737548828
75,98.1,585.748779296875
76,98.9,422.152679443359
77,99.1,534.080444335938
78,99.9,42.5810050964355
79,100.0,932.369934082031
80,100.1,523.467102050781
81,101.0,798.275268554688
82,101.0,2640.44458007813
83,102.0,26295.232421875
84,103.0,77853.265625
85,104.0,29079.70703125
86,105.0,4132.49072265625
87,105.8,8.83662033081055
88,106.0,465.512756347656
89,106.0,455.008117675781
90,106.7,37.3079071044922
91,106.8,103.906021118164
92,107.0,63.3231506347656
93,107.1,190.644592285156
94,107.6,27.8973751068115
95,107.9,79.6380310058594
96,108.0,61.8423385620117
97,108.2,36.4207077026367
98,109.0,1624.82250976563
99,109.9,297.567443847656
100,110.1,178.880783081055
101,110.8,182.655685424805
102,111.0,400.450866699219
103,111.2,119.53002166748
104,112.0,2976.509765625
105,112.2,37.0548706054688
106,113.0,331.893371582031
107,113.2,432.758087158203
108,113.4,90.4450988769531
109,113.7,22.6586380004883
110,113.8,186.110656738281
111,113.9,125.217132568359
112,114.1,644.691467285156
113,114.2,28.8678817749023
114,115.0,3171.60595703125
115,115.9,122.566596984863
116,116.0,6525.109375
117,117.0,29875.85546875
118,118.0,13530.7451171875
119,119.0,4716.189453125
120,119.9,95.1206359863281
121,120.0,149.97248840332
122,120.1,428.809356689453
123,120.5,22.5334415435791
124,120.6,78.0501098632813
125,120.8,79.2405700683594
126,121.1,37.2527809143066
127,121.2,39.8510894775391
128,121.4,114.204154968262
129,121.6,105.343864440918
130,121.9,153.515548706055
131,122.1,434.644073486328
132,122.2,29.1210117340088
133,122.9,418.940612792969
134,123.6,8.69864845275879
135,123.9,57.3228340148926
136,124.0,67.6513900756836
137,124.6,16.2369174957275
138,124.9,185.675277709961
139,125.1,218.972137451172
140,125.8,40.6971893310547
141,126.0,177.888763427734
142,126.1,237.150329589844
143,127.0,1664.37121582031
144,128.0,5249.8515625
145,129.0,31536.150390625
146,130.0,28640.625
147,131.0,178505.59375
148,132.0,21219.533203125
149,133.0,2182.14306640625
150,133.8,21.9466667175293
151,134.0,206.988403320313
152,134.1,187.453887939453
153,135.0,654.4013671875
154,135.7,25.2971019744873
155,136.0,351.904541015625
156,137.0,11178.34375
157,138.0,1208.30639648438
158,139.0,888.886840820313
159,139.9,239.884567260742
160,140.0,246.238174438477
161,140.2,63.3932342529297
162,140.9,225.476867675781
163,141.0,752.641967773438
164,142.0,3011.10864257813
165,143.1,9400.423828125
166,144.0,22401.921875
167,145.0,410602.28125
168,146.0,43616.16015625
169,147.0,3899.814453125
170,147.8,28.7704849243164
171,148.0,129.449935913086
172,148.1,157.00212097168
173,148.8,103.193939208984
174,149.0,111.014205932617
175,149.8,26.3919067382813
176,149.9,157.783752441406
177,150.1,283.976806640625
178,150.9,576.787353515625
179,151.9,52.5647964477539
180,152.0,140.643096923828
181,152.2,14.2331533432007
182,152.9,34.201171875
183,153.0,310.523254394531
184,153.9,177.707885742188
185,154.0,818.320373535156
186,155.0,3503.14404296875
187,156.0,4016.11181640625
188,157.0,7831.244140625
189,158.0,10288.2353515625
190,159.0,8768.515625
191,160.0,2192.81005859375
192,161.0,4411.50048828125
193,161.9,200.146545410156
194,162.0,600.664184570313
195,162.9,353.36865234375
196,163.8,36.5029335021973
197,163.9,96.6712265014648
198,164.0,104.436325073242
199,165.0,69.9742126464844
200,165.0,146.979934692383
201,165.9,18.1529235839844
202,166.0,102.467132568359
203,166.1,37.907054901123
204,166.9,506.544982910156
205,167.9,80.4964141845703
206,168.1,766.926330566406
207,168.2,133.426315307617
208,169.0,1795.13635253906
209,170.1,3670.82250976563
210,171.0,13273.8193359375
211,172.1,4183.46923828125
212,173.1,5657.8740234375
213,174.1,10764.7880859375
214,175.0,379.319793701172
215,175.1,2546.39697265625
216,175.8,43.4990539550781
217,175.9,146.715713500977
218,176.0,145.346008300781
219,176.1,126.107322692871
220,177.0,274.488250732422
221,177.8,30.2098388671875
222,178.0,86.9514999389648
223,178.2,34.5123672485352
224,178.8,27.3781185150146
225,178.9,133.41845703125
226,179.1,17.774923324585
227,180.0,138.018600463867
228,181.0,491.508666992188
229,181.2,53.6250610351563
230,181.9,156.130554199219
231,182.1,239.721374511719
232,182.8,53.5880126953125
233,183.1,905.665283203125
234,183.9,8.18109893798828
235,184.0,1429.52648925781
236,185.1,8590.6875
237,185.9,44.1985855102539
238,186.1,5905.87646484375
239,187.1,5654.06787109375
240,188.1,3857.05737304688
241,189.0,578.745971679688
242,189.1,429.856781005859
243,190.0,110.000671386719
244,190.1,28.9918804168701
245,191.0,315.337158203125
246,191.1,114.069549560547
247,191.9,177.213226318359
248,193.0,432.847381591797
249,193.8,2.11996459960938
250,193.9,68.8709106445313
251,194.0,93.1539459228516
252,194.2,23.8963565826416
253,195.0,539.983764648438
254,195.9,187.467437744141
255,196.0,158.360687255859
256,196.1,132.712890625
257,196.2,56.4107856750488
258,197.0,974.647338867188
259,197.8,4.36117172241211
260,198.0,792.407348632813
261,198.2,48.5646171569824
262,199.0,3661.84228515625
263,200.1,3924.96240234375
264,201.0,14205.1904296875
265,201.9,2.33240509033203
266,202.0,1217.51416015625
267,202.1,1333.28930664063
268,202.9,276.021087646484
269,203.0,287.80322265625
270,203.7,59.1964836120605
271,204.0,142.676422119141
272,204.7,4.60553741455078
273,204.9,56.5889129638672
274,205.0,83.9338531494141
275,205.1,64.4076919555664
276,205.6,19.0240917205811
277,205.8,27.1244659423828
278,205.9,85.8733139038086
279,206.0,42.9156494140625
280,206.1,40.166576385498
281,206.3,17.0559539794922
282,206.9,806.408325195313
283,207.9,48.1485214233398
284,208.0,71.071533203125
285,208.2,45.8557205200195
286,208.8,82.3423767089844
287,209.0,130.974609375
288,209.2,107.663360595703
289,209.8,80.8991165161133
290,209.9,51.7274398803711
291,210.0,340.017486572266
292,210.2,115.641563415527
293,211.0,2820.119140625
294,212.0,1177.69116210938
295,212.1,746.001342773438
296,213.1,16668.025390625
297,214.1,15494.4814453125
298,215.1,915894.6875
299,216.1,142189.140625
300,217.1,13641.037109375
301,218.0,1078.29443359375
302,218.9,1580.58715820313
303,219.8,241.887115478516
304,220.9,115.942321777344
305,221.0,73.0336303710938
306,221.8,38.9409942626953
307,222.0,30.05029296875
308,222.3,17.6999397277832
309,222.9,295.248413085938
310,223.7,18.530445098877
311,223.9,79.9065628051758
312,224.0,271.544006347656
313,224.9,87.5434188842773
314,225.0,320.920623779297
315,226.0,313.864929199219
316,226.1,580.297485351563
317,227.1,2124.23120117188
318,228.0,17.1604957580566
319,228.1,4123.591796875
320,229.1,2298.82153320313
321,230.1,3210.0517578125
322,231.0,124.824676513672
323,231.1,1341.99829101563
324,232.1,4084.70361328125
325,233.0,3471.8115234375
326,234.0,1202.17272949219
327,235.0,542.339233398438
328,235.8,12.29443359375
329,236.0,26.4154510498047
330,237.0,3239.60009765625
331,238.0,665.146240234375
332,239.0,958.717468261719
333,239.9,100.986633300781
334,240.0,114.327178955078
335,240.1,89.8790817260742
336,241.0,959.789184570313
337,241.2,130.362228393555
338,242.0,1190.35192871094
339,242.1,1177.51062011719
340,243.1,1542.51306152344
341,244.1,2811.1865234375
342,245.0,603.402709960938
343,245.2,1239.50598144531
344,246.1,180.403503417969
345,246.2,160.055862426758
346,246.8,108.247512817383
347,246.9,39.2048034667969
348,247.1,16.874059677124
349,247.9,46.4099311828613
350,248.9,116.471572875977
351,249.0,89.9824523925781
352,249.3,20.6076221466064
353,249.9,5.87079238891602
354,250.8,50.0704689025879
355,251.1,8.10382270812988
356,251.9,23.4849071502686
357,252.0,92.2823791503906
358,252.1,44.1563110351563
359,252.9,205.477310180664
360,253.0,321.613861083984
361,254.1,1793.13439941406
362,255.0,495.828491210938
363,255.1,142.892166137695
364,255.9,42.4077262878418
365,256.1,666.818664550781
366,256.2,307.998596191406
367,257.0,131.249877929688
368,257.2,784.825439453125
369,257.9,26.3116226196289
370,258.1,248.207885742188
371,258.6,51.8573112487793
372,258.7,7.4766149520874
373,259.0,42.2648162841797
374,259.1,178.458038330078
375,260.1,42.1378707885742
376,260.2,17.8693256378174
377,260.7,25.500373840332
378,260.9,70.452995300293
379,261.2,56.837158203125
380,262.1,30.3642654418945
381,262.8,51.2991523742676
382,264.8,1.14317607879639
383,264.9,14.0628633499146
384,265.1,42.6947212219238
385,265.9,17.0868797302246
386,266.0,30.556037902832
387,266.2,33.3716773986816
388,266.9,5.77703475952148
389,267.0,208.391845703125
390,267.2,47.9285888671875
391,267.9,59.3791465759277
392,268.1,371.473022460938
393,268.2,376.10498046875
394,269.1,959.840698242188
395,270.0,388.517944335938
396,270.1,6034.82861328125
397,271.1,105218.2734375
398,272.1,18812.68359375
399,273.1,2471.5576171875
400,274.0,272.114227294922
401,274.1,43.4658584594727
402,274.4,38.6348915100098
403,274.8,43.28955078125
404,274.9,291.616790771484
405,275.8,25.031177520752
406,275.9,98.2951049804688
407,276.9,338.228576660156
408,277.7,18.0467681884766
409,277.9,87.8385162353516
410,278.6,33.0642852783203
411,278.8,72.1087188720703
412,278.9,100.550445556641
413,279.1,30.0358943939209
414,279.9,52.0129508972168
415,281.0,299.324798583984
416,281.9,37.5022277832031
417,282.0,163.165145874023
418,282.2,84.8408508300781
419,282.8,0.343292236328125
420,283.0,143.483001708984
421,283.1,153.284133911133
422,284.2,3034.77319335938
423,285.1,1279.54028320313
424,285.2,159.227661132813
425,286.1,1143.90075683594
426,287.1,3411.68994140625
427,288.2,9759.7177734375
428,289.0,1027.06384277344
429,289.1,1276.10107421875
430,289.8,133.515869140625
431,290.0,133.718154907227
432,290.7,19.1227073669434
433,291.1,158.727981567383
434,291.8,10.5068397521973
435,291.9,147.186157226563
436,292.2,24.7828311920166
437,292.9,897.175537109375
438,294.0,237.29638671875
439,294.9,72.9481201171875
440,295.0,295.313201904297
441,295.1,32.7507667541504
442,295.8,35.2958335876465
443,296.1,160.450805664063
444,296.2,38.9017333984375
445,296.3,70.4416275024414
446,296.8,54.4112701416016
447,297.0,406.581970214844
448,298.2,2047.50451660156
449,299.2,2175.12133789063
450,300.2,403749.46875
451,301.2,84444.34375
452,302.2,9608.2197265625
453,303.1,801.266052246094
454,303.3,102.232368469238
455,304.0,22.9760913848877
456,304.1,66.4974212646484
457,304.7,71.5593109130859
458,304.9,11.1571273803711
459,305.1,76.1404113769531
460,305.2,26.6099700927734
461,307.0,87.9773330688477
462,307.1,51.6636199951172
463,308.1,14.3597421646118
464,309.1,13.6707630157471
465,310.0,151.834060668945
466,310.7,66.5501708984375
467,311.1,232.167266845703
468,311.3,45.171703338623
469,312.1,4591.68505859375
470,313.0,48.6585960388184
471,313.1,947.181945800781
472,314.0,78.3175430297852
473,314.3,51.6540031433105
474,314.8,34.5169219970703
475,315.0,129.958435058594
476,315.2,23.0426406860352
477,316.0,17.6318054199219
478,316.8,18.9876003265381
479,317.0,38.9582939147949
480,317.1,52.1510276794434
481,318.9,16.2746448516846
482,319.0,21.0299606323242
483,319.3,14.5714712142944
484,322.9,18.6346454620361
485,323.0,36.1577911376953
486,323.1,16.3759136199951
487,324.9,21.6562995910645
488,325.0,110.9990234375
489,325.2,17.8337078094482
490,326.1,276.693634033203
491,326.2,341.652679443359
492,327.0,93.0817108154297
493,327.2,629.170043945313
494,327.9,70.3233871459961
495,328.1,85.8705368041992
496,328.2,69.9613418579102
497,329.2,1557.96179199219
498,330.1,228.769287109375
499,330.3,110.620277404785
500,330.6,20.6979427337646
501,330.9,44.9386940002441
502,331.0,54.3120613098145
503,331.2,39.7603759765625
504,332.9,27.1744155883789
505,333.0,88.8734817504883
506,333.2,29.043909072876
507,335.0,63.2505493164063
508,336.8,47.38330078125
509,337.2,14.9068841934204
510,338.9,13.4957075119019
511,341.1,53.5296020507813
512,341.2,15.1329727172852
513,343.0,23.060302734375
514,343.2,35.3976898193359
515,344.1,14.9645557403564
516,344.2,664.912536621094
517,344.4,57.2808837890625
518,344.9,16.8685340881348
519,345.1,105.505477905273
520,345.2,117.367919921875
521,345.6,14.2806997299194
522,346.0,32.7563514709473
523,348.0,12.9468755722046
524,348.8,31.1642951965332
525,348.9,89.5692749023438
526,349.0,7.97491455078125
527,349.1,40.7008361816406
528,349.3,21.9184627532959
529,349.9,67.8231430053711
530,350.9,38.1540145874023
531,351.0,11.7751026153564
532,351.1,14.3578519821167
533,352.6,58.361888885498
534,352.8,32.3415107727051
535,352.9,10.1875629425049
536,353.1,59.7043647766113
537,355.0,20.9572925567627
538,355.2,15.0890512466431
539,356.8,25.2290191650391
540,358.6,20.133358001709
541,360.9,31.9328479766846
542,363.0,23.16188621521
543,364.1,15.2673683166504
544,364.9,29.4744091033936
545,366.7,14.4903516769409
546,367.0,63.3923034667969
547,367.2,9.55287647247314
548,368.9,21.0786457061768
549,370.8,5.44165897369385
550,370.9,104.787986755371
551,373.0,14.4201669692993
552,380.8,15.5255365371704
553,382.9,13.2760963439941
554,385.1,14.3889045715332
555,387.2,45.7218017578125
556,401.0,34.792537689209
557,401.1,21.3248500823975
558,405.1,12.9494371414185
559,407.0,13.3508949279785
560,424.0,13.1192026138306
561,427.0,14.2331209182739
562,431.0,18.0952606201172
563,483.0,34.3621025085449
