#"+EI Scan (rt: 3.716-3.786 min, 13 scans) R1M5.D  Subtract "
#Point,X(Thompsons),Y(Counts)
0,40.1,1544.43957519531
1,41.1,33254.76171875
2,41.9,25.6214828491211
3,42.1,5881.48974609375
4,43.1,31002.462890625
5,44.0,3702.2939453125
6,45.0,84.2268676757813
7,45.1,49.6746482849121
8,46.0,60.6640434265137
9,47.0,442.158233642578
10,48.1,13.0787353515625
11,48.8,91.2315292358398
12,49.0,84.1083831787109
13,49.9,78.7770309448242
14,50.0,796.526245117188
15,51.0,3195.72973632813
16,52.0,1404.15698242188
17,53.1,7669.6728515625
18,54.1,3648.25952148438
19,55.1,18201.333984375
20,56.1,5179.3427734375
21,57.0,4676.9326171875
22,58.1,4999.71435546875
23,59.0,2479.619140625
24,59.8,38.6810874938965
25,60.0,300.778747558594
26,60.1,98.578369140625
27,60.8,57.7262916564941
28,60.9,121.802993774414
29,61.0,45.4863357543945
30,61.2,24.556547164917
31,62.0,1314.443359375
32,62.1,31.3775424957275
33,63.0,3093.671875
34,63.9,353.1171875
35,64.0,1030.97619628906
36,65.0,7855.17919921875
37,66.1,5588.62548828125
38,67.1,23376.994140625
39,68.0,510.555206298828
40,68.1,3310.51953125
41,69.1,5945.98095703125
42,70.0,2466.83325195313
43,70.2,36.1047096252441
44,71.0,109.714637756348
45,71.1,1836.47253417969
46,72.0,462.480987548828
47,72.2,21.6877365112305
48,73.0,2638.103515625
49,74.0,775.8017578125
50,75.0,2759.36474609375
51,76.0,6141.119140625
52,77.0,42259.9296875
53,78.0,11948.990234375
54,79.1,43526.48046875
55,80.1,9818.517578125
56,81.0,14260.6640625
57,82.1,4244.693359375
58,83.0,1748.82202148438
59,83.9,174.045959472656
60,84.1,318.576049804688
61,84.2,57.8603324890137
62,84.9,127.345245361328
63,85.0,337.380554199219
64,85.8,42.4564971923828
65,86.0,234.403305053711
66,86.1,196.435317993164
67,86.7,19.3893508911133
68,86.9,513.692810058594
69,87.0,474.693054199219
70,87.2,95.8932876586914
71,88.0,14155.7353515625
72,89.0,15736.6416015625
73,90.0,33477.359375
74,91.0,47768.3203125
75,92.1,38934.95703125
76,93.1,70130.7421875
77,94.1,38396.65234375
78,95.1,6953.779296875
79,96.0,565.302185058594
80,96.1,1484.72277832031
81,97.0,493.446075439453
82,97.7,35.1484260559082
83,97.9,162.303863525391
84,98.5,13.8844776153564
85,98.7,13.1080636978149
86,98.9,120.558891296387
87,99.0,192.211517333984
88,99.2,33.2911643981934
89,99.8,72.114631652832
90,99.9,148.597442626953
91,100.9,92.1557693481445
92,101.1,1130.85095214844
93,102.0,14829.1162109375
94,103.0,41086.71484375
95,104.0,19004.5625
96,105.1,13947.791015625
97,106.1,9518.35546875
98,107.1,16461.701171875
99,108.1,16888.626953125
100,109.0,9832.6513671875
101,110.1,1504.72680664063
102,110.8,121.982406616211
103,111.0,438.904602050781
104,111.6,97.9767532348633
105,111.8,43.9776420593262
106,112.0,260.962463378906
107,112.5,42.8385772705078
108,113.1,334.872100830078
109,113.9,229.965026855469
110,114.0,424.922912597656
111,115.0,3565.48608398438
112,116.0,4766.0107421875
113,117.0,21934.404296875
114,118.0,8781.6396484375
115,119.1,10015.1181640625
116,119.9,15.5392150878906
117,120.0,5803.92919921875
118,121.0,733.412048339844
119,121.1,1320.3564453125
120,122.0,1465.435546875
121,123.0,1321.95385742188
122,123.8,52.8661918640137
123,123.9,69.2800598144531
124,124.0,120.39136505127
125,124.2,83.7372894287109
126,124.7,43.9499244689941
127,124.9,121.120300292969
128,125.1,167.665618896484
129,125.4,508.214996337891
130,125.6,1090.64587402344
131,125.8,79.4641876220703
132,126.0,219.794250488281
133,126.1,22.8236885070801
134,126.3,21.2401943206787
135,126.9,712.421020507813
136,127.1,399.971069335938
137,127.9,78.1147308349609
138,128.0,3496.34521484375
139,129.0,19633.05859375
140,129.9,179.178985595703
141,130.1,16210.9365234375
142,131.0,88021.9453125
143,132.1,14590.0107421875
144,133.1,7483.83544921875
145,134.0,2214.08740234375
146,134.1,5625.2158203125
147,135.1,78181.7421875
148,136.1,18725.4453125
149,137.0,11217.958984375
150,138.0,1102.98608398438
151,139.1,1061.04455566406
152,140.0,519.350830078125
153,140.1,86.6046142578125
154,141.0,940.607727050781
155,141.9,520.703552246094
156,142.1,1668.06384277344
157,142.9,277.858520507813
158,143.0,6359.9619140625
159,144.0,15514.8955078125
160,145.0,287038.375
161,146.0,29735.54296875
162,147.0,3333.56811523438
163,148.1,1672.07250976563
164,148.2,292.592407226563
165,149.1,5126.8916015625
166,150.1,126741.53125
167,151.1,15946.5869140625
168,152.1,1475.09619140625
169,152.8,65.8520050048828
170,153.0,664.360717773438
171,153.3,50.1700248718262
172,153.7,26.5710124969482
173,154.0,510.929718017578
174,154.2,276.149536132813
175,155.0,2616.97900390625
176,156.0,4590.98486328125
177,157.0,6816.6474609375
178,158.1,7617.0771484375
179,159.0,6465.287109375
180,160.0,2030.06323242188
181,161.0,9677.421875
182,161.9,130.612365722656
183,162.0,1502.39721679688
184,162.2,80.0461349487305
185,162.9,727.328979492188
186,163.9,187.821853637695
187,164.0,89.1834869384766
188,164.1,115.433120727539
189,165.0,590.349853515625
190,165.1,95.9231491088867
191,166.0,176.536727905273
192,166.1,240.030181884766
193,166.2,21.5131397247314
194,167.0,1001.85131835938
195,167.9,313.284301757813
196,168.0,816.907775878906
197,168.9,134.985290527344
198,169.0,1631.99780273438
199,169.9,98.425422668457
200,170.0,2122.876953125
201,171.0,8889.08984375
202,171.9,160.932357788086
203,172.1,2893.9775390625
204,172.9,79.0814971923828
205,173.1,2945.57177734375
206,174.1,23058.349609375
207,175.1,7502.27294921875
208,175.1,106.850517272949
209,175.9,22.6670608520508
210,176.0,569.453063964844
211,176.1,593.014038085938
212,177.0,87.9828796386719
213,177.1,240.477355957031
214,177.9,94.4309768676758
215,178.1,282.142730712891
216,178.6,14.5741376876831
217,178.8,63.3264999389648
218,179.1,414.373840332031
219,179.8,99.8576507568359
220,179.9,262.97314453125
221,180.1,306.698120117188
222,180.2,54.7616539001465
223,180.9,618.712158203125
224,181.0,477.793029785156
225,182.0,150.698303222656
226,182.1,654.034118652344
227,182.6,21.158504486084
228,183.0,1106.88195800781
229,183.2,202.458984375
230,184.0,553.799438476563
231,184.1,823.065795898438
232,185.1,6517.05224609375
233,186.1,4494.98779296875
234,187.1,17199.91796875
235,188.0,420.853698730469
236,188.1,3070.3115234375
237,189.1,10511.1669921875
238,190.0,757.832153320313
239,190.1,642.178161621094
240,190.3,14.1102514266968
241,191.0,1007.00128173828
242,191.6,12.5265455245972
243,192.0,380.185577392578
244,192.1,55.3288116455078
245,192.8,57.1713943481445
246,193.0,768.153686523438
247,193.9,22.2954711914063
248,194.0,502.162261962891
249,194.2,18.580451965332
250,195.0,1444.8095703125
251,195.9,68.7801361083984
252,196.0,523.016235351563
253,197.0,1533.17663574219
254,197.9,85.148307800293
255,198.1,1021.1630859375
256,199.0,3738.28076171875
257,200.0,45.9756927490234
258,200.1,1745.51428222656
259,200.9,70.5803298950195
260,201.1,3265.44946289063
261,202.1,30032.740234375
262,203.1,4941.00390625
263,203.9,113.622184753418
264,204.1,565.068725585938
265,204.2,242.541809082031
266,204.3,13.1081304550171
267,205.0,317.69873046875
268,205.2,74.3954010009766
269,206.0,206.225234985352
270,206.1,179.185653686523
271,207.0,990.76806640625
272,207.2,144.394485473633
273,207.9,223.800628662109
274,208.1,523.935913085938
275,208.2,130.093597412109
276,208.9,40.2141761779785
277,209.0,273.386291503906
278,209.1,552.064331054688
279,210.0,58.8756561279297
280,210.1,1296.72082519531
281,211.0,2212.26416015625
282,212.0,1633.6103515625
283,213.1,7734.5048828125
284,214.1,5909.6875
285,215.1,400236.875
286,216.1,62813.953125
287,217.1,6633.8076171875
288,218.0,457.256011962891
289,218.1,288.001647949219
290,218.9,1292.77905273438
291,219.9,200.634582519531
292,220.0,576.006652832031
293,220.9,216.876647949219
294,221.0,934.110046386719
295,221.9,150.825347900391
296,222.0,606.296081542969
297,222.1,22.1206150054932
298,222.8,100.538948059082
299,223.0,738.512023925781
300,223.9,214.521514892578
301,224.1,360.665710449219
302,224.7,24.9371109008789
303,224.9,136.902938842773
304,225.1,427.486755371094
305,225.2,139.037689208984
306,226.0,536.044067382813
307,226.2,67.2556381225586
308,226.9,228.499618530273
309,227.1,519.668212890625
310,228.0,167.491958618164
311,228.1,790.062133789063
312,228.2,84.9879150390625
313,229.0,809.2509765625
314,229.1,767.9169921875
315,230.1,7641.7216796875
316,231.1,2477.88427734375
317,232.0,90.1145706176758
318,232.1,1433.67700195313
319,233.0,2965.404296875
320,234.0,1108.71435546875
321,235.0,972.130554199219
322,235.1,107.295120239258
323,235.7,27.6677360534668
324,236.0,294.790344238281
325,236.1,797.316284179688
326,237.0,4126.51953125
327,238.0,3205.3828125
328,239.0,261.980285644531
329,239.1,1492.57214355469
330,239.9,115.807426452637
331,240.1,351.472045898438
332,240.1,480.577301025391
333,240.3,34.248664855957
334,240.9,78.9125061035156
335,241.0,238.769897460938
336,241.1,1507.25122070313
337,242.1,533.595642089844
338,242.2,628.408142089844
339,242.9,25.9777545928955
340,243.1,581.872924804688
341,243.2,1439.16625976563
342,244.0,180.473937988281
343,244.1,537.509643554688
344,244.2,150.480621337891
345,244.7,20.0158004760742
346,245.0,151.632461547852
347,245.1,12.9360046386719
348,245.2,58.8794021606445
349,246.0,134.56071472168
350,246.2,22.6558132171631
351,246.9,115.372940063477
352,247.0,40.7197074890137
353,247.8,13.2826976776123
354,248.0,57.9715843200684
355,248.1,46.5385665893555
356,249.0,533.415405273438
357,249.1,1625.03588867188
358,250.0,139.310195922852
359,250.1,2065.57202148438
360,251.1,2074.50122070313
361,252.1,1053.66748046875
362,252.1,1673.36938476563
363,253.0,965.5595703125
364,253.2,467.40478515625
365,253.8,23.0109348297119
366,254.0,33.7699775695801
367,254.1,792.436828613281
368,254.8,16.5686492919922
369,255.0,304.682739257813
370,255.2,518.793640136719
371,256.0,104.135200500488
372,256.2,357.435546875
373,256.4,14.1179494857788
374,256.7,19.5515441894531
375,257.0,297.208312988281
376,257.9,37.269947052002
377,258.1,134.807632446289
378,258.6,22.1471557617188
379,258.9,201.041320800781
380,260.0,39.5423736572266
381,260.1,13.4862384796143
382,260.8,22.9067878723145
383,261.2,78.1787033081055
384,261.8,15.0760078430176
385,262.0,18.2467002868652
386,262.2,88.4017639160156
387,262.3,13.71506690979
388,262.9,40.9932250976563
389,263.0,104.700645446777
390,263.1,2604.81860351563
391,264.1,948.762145996094
392,264.2,525.71435546875
393,265.2,9827.302734375
394,266.1,362.339202880859
395,266.2,3291.58813476563
396,266.9,39.2322158813477
397,267.1,1481.51452636719
398,267.9,86.3264923095703
399,268.1,367.661285400391
400,268.3,11.6660966873169
401,269.0,136.347473144531
402,269.1,599.315612792969
403,270.1,4491.47705078125
404,270.2,117.808097839355
405,271.1,5357.21875
406,272.2,3442.14697265625
407,273.0,437.806396484375
408,273.2,131.783432006836
409,274.0,156.23193359375
410,274.1,145.066223144531
411,274.9,750.844787597656
412,275.0,127.090141296387
413,275.9,91.1673889160156
414,276.0,68.7132568359375
415,276.2,149.351226806641
416,277.0,1.75436401367188
417,277.1,2202.66064453125
418,278.1,499.985473632813
419,278.2,1472.48522949219
420,278.9,56.8120994567871
421,279.1,4129.310546875
422,280.2,64915.4140625
423,281.2,15907.5263671875
424,282.1,1319.59765625
425,282.2,1093.20495605469
426,283.0,75.8632507324219
427,283.1,306.501098632813
428,283.2,112.014724731445
429,283.9,14.6581707000732
430,284.0,93.6005401611328
431,284.2,11.5817241668701
432,285.0,773.693115234375
433,285.1,50.8996429443359
434,285.7,67.3302154541016
435,285.9,210.757843017578
436,287.0,171.668075561523
437,287.1,142.772064208984
438,288.0,39.633846282959
439,289.0,1100.09057617188
440,290.1,1242.55603027344
441,291.0,854.010864257813
442,291.2,294.527526855469
443,292.0,176.608139038086
444,292.1,502.023895263672
445,292.3,208.75146484375
446,293.0,1520.9501953125
447,294.2,140585.328125
448,295.2,32351.8125
449,296.2,7639.94775390625
450,297.1,1980.91467285156
451,297.8,113.150688171387
452,298.0,103.880851745605
453,298.1,157.687530517578
454,298.4,93.8972702026367
455,298.9,114.843536376953
456,299.0,62.7379684448242
457,299.6,12.4253692626953
458,299.9,37.6988258361816
459,300.2,27.1998023986816
460,300.9,61.4914207458496
461,301.0,51.5972061157227
462,301.9,39.7230682373047
463,302.2,18.1069240570068
464,302.7,28.6723861694336
465,302.9,60.1604881286621
466,303.0,43.2874145507813
467,303.1,277.697998046875
468,303.4,39.0226020812988
469,303.9,17.9349594116211
470,304.0,83.802375793457
471,304.2,52.9209594726563
472,305.0,64.5998458862305
473,305.1,395.173675537109
474,305.2,300.461791992188
475,305.9,102.919921875
476,306.1,456.891387939453
477,306.3,103.083648681641
478,307.0,35.8526382446289
479,307.1,1145.41223144531
480,308.2,45740.9375
481,309.2,13996.529296875
482,310.1,244.009826660156
483,310.2,2773.87231445313
484,311.1,244.075576782227
485,311.2,158.41455078125
486,311.9,38.0738296508789
487,312.1,70.5902252197266
488,314.0,15.1599931716919
489,314.2,35.697940826416
490,314.4,55.6030044555664
491,314.9,28.6145839691162
492,315.0,162.131698608398
493,316.7,18.5777721405029
494,316.8,24.3032360076904
495,317.0,45.5014572143555
496,318.0,50.0173416137695
497,318.1,44.9037322998047
498,319.2,2196.05126953125
499,320.2,52549.1796875
500,321.2,17014.81640625
501,322.2,10435.3330078125
502,323.2,2542.06225585938
503,323.3,50.3156356811523
504,324.0,52.4160194396973
505,324.2,3131.12841796875
506,325.0,13.8946590423584
507,325.2,619.251220703125
508,325.2,217.405197143555
509,326.0,30.272611618042
510,326.2,70.7485580444336
511,326.3,17.5804843902588
512,326.6,12.0690546035767
513,326.8,29.0485000610352
514,327.0,35.5178489685059
515,329.0,70.4046783447266
516,329.1,62.4485321044922
517,330.9,64.5842208862305
518,331.2,49.4245414733887
519,331.8,11.7262992858887
520,332.3,20.7011909484863
521,332.5,13.6686916351318
522,332.7,16.8129234313965
523,332.8,20.4262981414795
524,333.0,41.8269805908203
525,333.7,11.8803596496582
526,334.1,92.8100051879883
527,334.4,29.4766273498535
528,335.0,97.6172027587891
529,335.1,211.452178955078
530,335.3,34.6741638183594
531,336.2,6936.57763671875
532,337.3,130442.90625
533,338.2,32665.404296875
534,339.0,78.9658203125
535,339.2,4063.9931640625
536,340.1,56.3367729187012
537,340.2,210.563552856445
538,340.9,19.5304985046387
539,344.6,15.3429269790649
540,346.1,52.392951965332
541,347.0,99.0975799560547
542,347.1,195.715850830078
543,347.3,13.2356605529785
544,348.0,19.420352935791
545,348.1,566.591430664063
546,348.3,133.820755004883
547,349.0,146.790451049805
548,349.1,210.854156494141
549,349.2,126.279670715332
550,349.3,41.8527412414551
551,350.0,10.0975646972656
552,350.2,359.148498535156
553,350.2,760.533142089844
554,351.1,204.571060180664
555,351.2,209.529541015625
556,352.1,26.5433578491211
557,352.8,65.8941268920898
558,352.9,52.8299751281738
559,353.0,98.8430709838867
560,353.9,15.7302894592285
561,354.3,15.0336923599243
562,354.9,71.7603607177734
563,359.1,27.8215732574463
564,360.3,12.1472263336182
565,360.6,27.6642036437988
566,362.1,37.3089790344238
567,362.3,51.8072128295898
568,363.0,208.218032836914
569,363.2,127.210014343262
570,364.2,760.085632324219
571,364.3,3706.05639648438
572,365.3,91110.6640625
573,366.3,23908.478515625
574,367.2,780.106689453125
575,367.3,2453.7919921875
576,368.1,212.11067199707
577,368.2,173.716033935547
578,368.4,55.6706123352051
579,369.3,14.7354736328125
580,370.9,39.6494941711426
581,375.0,12.5775508880615
582,381.1,20.8503341674805
583,381.3,22.7846298217773
584,387.1,16.0357913970947
585,391.3,14.4066457748413
586,396.2,16.4645462036133
587,396.4,40.8466949462891
588,397.3,51.0525932312012
589,397.4,12.45348072052
590,399.0,13.3284254074097
591,399.2,15.1505937576294
592,399.5,19.2990226745605
593,401.9,20.1383800506592
594,408.9,11.98353099823
595,412.7,12.2472887039185
596,414.2,12.2988653182983
597,414.4,150.028717041016
