#"+EI Scan (rt: 16.341-16.392 min, 9 scans) Iso1-3.D  Subtract "
#Point,X(Thompsons),Y(Counts)
0,40.1,1354.12902832031
1,41.1,34352.3515625
2,42.0,34074.20703125
3,43.0,4922.62451171875
4,44.0,18335.91015625
5,45.0,291.694702148438
6,45.9,35.2994194030762
7,46.1,91.4588241577148
8,46.9,256.335906982422
9,48.9,123.783996582031
10,50.0,364.483673095703
11,50.0,392.173461914063
12,51.0,3700.19287109375
13,52.0,997.084106445313
14,53.0,1868.46118164063
15,54.0,2429.3916015625
16,55.0,7984.41015625
17,56.0,5696.9453125
18,57.0,3545.322265625
19,58.0,807.642456054688
20,61.0,87.4438781738281
21,61.9,362.648803710938
22,63.0,1255.29846191406
23,64.0,683.55224609375
24,65.0,5880.84765625
25,66.0,1689.27844238281
26,67.0,5869.5048828125
27,68.0,7184.30029296875
28,69.0,80133.8046875
29,70.1,15329.1533203125
30,71.0,1229.14318847656
31,71.8,60.758186340332
32,72.0,298.621643066406
33,74.0,225.242797851563
34,75.0,372.152587890625
35,76.0,1040.51293945313
36,77.0,25328.20703125
37,78.0,3957.87109375
38,79.0,14127.50390625
39,80.0,3175.48168945313
40,81.0,1195.8955078125
41,82.1,7793.1337890625
42,83.0,1733.83996582031
43,84.1,3519.06958007813
44,85.0,305.03955078125
45,85.8,101.767051696777
46,86.0,52.8785667419434
47,86.1,101.813949584961
48,87.0,454.114990234375
49,87.9,148.371017456055
50,89.0,1276.22985839844
51,90.0,610.954772949219
52,90.1,633.178405761719
53,91.0,18073.66796875
54,92.0,3622.18774414063
55,93.0,15631.98046875
56,94.1,8705.1630859375
57,95.0,5238.2744140625
58,96.1,40552.328125
59,97.0,4722.87109375
60,98.1,3528.5166015625
61,99.0,298.733642578125
62,99.8,33.5146675109863
63,100.0,382.459320068359
64,101.0,237.184997558594
65,101.0,121.944633483887
66,102.0,1136.67822265625
67,103.0,12672.685546875
68,104.0,19398.861328125
69,105.0,68918.7578125
70,106.0,10525.052734375
71,107.0,1478.08679199219
72,108.0,982.200744628906
73,110.0,560.686889648438
74,111.0,254.359497070313
75,112.0,1149.78833007813
76,112.9,161.919189453125
77,114.0,319.152282714844
78,115.0,2595.4970703125
79,116.0,1533.5693359375
80,117.0,8545.8759765625
81,118.0,17360.599609375
82,119.0,5996.88232421875
83,120.0,3539.53735351563
84,120.9,181.709335327148
85,121.0,151.508178710938
86,122.0,168.179153442383
87,122.9,205.58056640625
88,123.9,93.5400390625
89,124.0,67.7659454345703
90,125.8,15.7874298095703
91,126.1,79.4203796386719
92,126.9,269.541381835938
93,127.1,112.538421630859
94,127.9,244.416687011719
95,128.0,1081.41284179688
96,129.0,1418.443359375
97,130.0,19775.236328125
98,131.0,13775.26953125
99,132.1,29442.71484375
100,133.0,4418.27783203125
101,134.1,4674.55908203125
102,135.0,796.059814453125
103,136.0,753.260314941406
104,137.0,47.6953125
105,138.0,406.09765625
106,139.0,1448.7685546875
107,140.0,493.025054931641
108,142.0,466.865600585938
109,143.0,1788.82299804688
110,144.1,8684.2265625
111,145.1,4775.66455078125
112,146.1,254433.640625
113,147.1,30029.423828125
114,148.1,4396.26025390625
115,149.0,713.397644042969
116,149.9,198.482681274414
117,150.1,76.4785842895508
118,150.3,40.1358489990234
119,151.0,16.764404296875
120,152.0,354.083862304688
121,153.0,149.959594726563
122,153.9,380.969665527344
123,155.0,344.52734375
124,156.0,1319.26684570313
125,157.0,1070.78466796875
126,158.1,36034.296875
127,159.0,4617.68359375
128,160.0,9195.888671875
129,161.0,5292.20458984375
130,162.0,2390.05615234375
131,162.9,132.6923828125
132,164.9,8.3695068359375
133,166.0,129.919296264648
134,166.9,53.839599609375
135,168.0,252.714660644531
136,168.9,245.200805664063
137,170.0,1021.47979736328
138,170.9,382.127319335938
139,172.1,2923.93432617188
140,173.1,1839.30688476563
141,174.1,982.145263671875
142,175.0,380.700347900391
143,175.9,27.8273525238037
144,176.0,140.237457275391
145,177.0,180.700332641602
146,177.9,152.826599121094
147,179.0,390.441467285156
148,179.9,163.327270507813
149,181.9,285.775054931641
150,182.0,282.092468261719
151,183.0,268.361755371094
152,184.1,6241.55859375
153,185.1,6618.7490234375
154,186.1,13713.70703125
155,187.1,11947.568359375
156,188.1,12349.5712890625
157,189.1,330295.5
158,190.1,45483.8046875
159,191.0,3088.83032226563
160,192.0,541.556213378906
161,193.0,124.88427734375
162,194.0,250.807327270508
163,195.9,5.02099609375
164,197.9,272.045776367188
165,198.9,125.89794921875
166,200.0,854.069274902344
167,200.9,367.612060546875
168,201.9,150.810974121094
169,202.9,177.09521484375
170,203.9,532.100036621094
171,205.8,20.3919982910156
172,206.0,58.48681640625
173,207.0,0.61572265625
174,208.0,23.176513671875
175,209.9,118.269233703613
176,212.0,214.896484375
177,213.0,455.802734375
178,214.1,55873.66015625
179,215.0,6821.0546875
180,216.0,706.6953125
181,218.9,262.13671875
182,219.9,36.506103515625
183,221.9,65.8117065429688
184,224.0,282.205017089844
185,225.0,323.690307617188
186,226.1,85.3841171264648
187,227.0,160.098388671875
188,228.1,2225.5908203125
189,229.0,1394.48266601563
190,230.0,261.180603027344
191,231.0,90.8705444335938
192,232.1,141.032791137695
193,234.0,136.4677734375
194,236.0,499.522827148438
195,238.0,392.92578125
196,240.1,189.45556640625
197,240.9,247.674560546875
198,241.9,30.6566772460938
199,242.9,331.6044921875
200,244.1,148.625411987305
201,244.2,38.3972625732422
202,244.9,78.8109130859375
203,245.8,69.7273254394531
204,246.9,7.46493530273438
205,247.9,36.387077331543
206,248.8,56.8201446533203
207,249.9,132.36149597168
208,250.8,69.6558456420898
209,251.0,235.631866455078
210,251.9,105.153915405273
211,252.0,79.8156890869141
212,252.9,1.7589111328125
213,253.8,27.6171855926514
214,254.1,92.8637084960938
215,255.1,1104.03198242188
216,257.1,537746.25
217,258.1,99749.8984375
218,259.1,10354.3271484375
219,260.1,785.216674804688
220,260.9,120.959777832031
221,261.9,39.6678504943848
222,262.0,62.4337310791016
223,262.8,53.7518196105957
224,262.9,120.787155151367
225,263.8,55.3308296203613
226,264.0,19.5221462249756
227,265.0,151.481460571289
228,265.9,67.3849258422852
229,267.0,167.470840454102
230,267.9,141.008636474609
231,269.9,85.230712890625
232,270.9,57.6123046875
233,272.0,498.625762939453
234,273.0,26.87158203125
235,273.9,120.84912109375
236,274.9,90.29248046875
237,275.9,31.734619140625
238,276.9,307.37548828125
239,277.9,162.659423828125
240,279.0,2709.78588867188
241,280.0,288.239837646484
242,280.1,371.884979248047
243,281.0,96.37548828125
244,282.0,210.103225708008
245,282.9,440.358795166016
246,283.9,9.18121337890625
247,284.1,19.3182640075684
248,285.0,100.64306640625
249,285.9,8.9208984375
250,288.1,27.9934692382813
251,289.0,269.6240234375
252,290.0,30.626953125
253,291.0,81.356201171875
254,291.8,120.36222076416
255,292.0,122.355773925781
256,293.0,429.447265625
257,293.9,160.402587890625
258,295.0,6.1513671875
259,296.9,97.244384765625
260,297.9,35.575927734375
261,299.0,112.021263122559
262,299.8,7.88919067382813
263,301.8,45.2849922180176
264,302.0,18.7777462005615
265,303.0,34.231330871582
266,304.8,62.8216094970703
267,307.0,161.82958984375
268,307.1,258.410034179688
269,307.9,55.1110687255859
270,308.0,150.294021606445
271,308.1,44.7182769775391
272,309.0,91.2845458984375
273,310.0,85.1632232666016
274,310.1,49.3432731628418
275,310.3,31.8774375915527
276,310.9,312.146179199219
277,311.9,6.11851501464844
278,312.0,23.3752155303955
279,313.0,78.5163192749023
280,314.8,91.2323532104492
281,315.8,107.765083312988
282,316.9,214.688949584961
283,319.0,43.8022727966309
284,326.9,56.6730613708496
285,328.8,35.2720031738281
286,329.9,20.3565216064453
287,330.0,26.1159858703613
288,330.1,19.4794673919678
289,330.5,17.2026119232178
290,330.8,29.7498989105225
291,330.9,231.248291015625
292,333.0,43.4621162414551
293,334.7,19.5887184143066
294,336.8,19.1583824157715
295,336.9,18.1361389160156
296,340.8,26.8357677459717
297,340.9,38.4472236633301
298,345.0,77.9382476806641
299,345.1,18.6113109588623
300,346.2,3389.86499023438
301,347.2,1268.10363769531
302,348.0,78.5618515014648
303,348.2,116.017158508301
304,348.3,43.1064376831055
305,348.9,177.638000488281
306,349.1,186.56071472168
307,349.9,40.3603553771973
308,350.0,77.5591659545898
309,350.9,180.766143798828
310,353.0,41.1331787109375
311,355.1,29.8423557281494
312,356.9,63.1438255310059
313,358.8,20.4416732788086
314,359.0,54.8653411865234
315,363.0,36.6644096374512
316,366.8,34.3492012023926
317,367.9,19.1682891845703
318,370.8,96.1282424926758
319,372.9,36.3086700439453
