#"+EI Scan (rt: 16.341-16.392 min, 9 scans) Iso1-8.D  Subtract "
#Point,X(Thompsons),Y(Counts)
0,40.1,1348.86975097656
1,41.1,27693.18359375
2,42.1,28067.935546875
3,43.1,4072.2138671875
4,44.0,15348.0146484375
5,45.0,424.939025878906
6,46.1,56.6465454101563
7,47.0,4.7744140625
8,48.8,54.054271697998
9,49.0,8.63772201538086
10,50.0,785.059020996094
11,51.0,3243.63818359375
12,52.0,1006.67175292969
13,53.0,1560.68884277344
14,54.0,2028.20922851563
15,55.0,6811.0908203125
16,56.1,5051.228515625
17,57.0,3016.53002929688
18,58.1,681.855712890625
19,60.0,7.2232666015625
20,60.9,68.4922332763672
21,61.0,45.4641876220703
22,61.9,202.191436767578
23,62.0,123.76921081543
24,63.0,1018.42926025391
25,63.9,185.765441894531
26,64.0,460.332885742188
27,65.0,4896.88330078125
28,66.0,1441.81872558594
29,67.0,5371.65087890625
30,68.1,6269.07470703125
31,69.0,69655.8359375
32,70.1,13018.3359375
33,71.0,1202.30786132813
34,72.0,97.0545043945313
35,72.1,120.645477294922
36,74.0,242.2060546875
37,75.0,216.395263671875
38,76.1,969.2412109375
39,77.0,22181.2421875
40,78.0,3994.60546875
41,79.0,12215.7431640625
42,80.0,2905.96630859375
43,81.0,933.1484375
44,82.0,6310.875
45,83.0,1627.9697265625
46,84.1,3221.98754882813
47,85.0,324.858520507813
48,85.8,23.2742328643799
49,86.0,165.044723510742
50,86.1,24.7365798950195
51,86.9,127.912338256836
52,87.8,64.5010681152344
53,88.0,12.3122978210449
54,89.0,386.132080078125
55,89.1,745.93994140625
56,90.0,1220.95825195313
57,91.0,15842.8525390625
58,92.1,3391.841796875
59,93.0,15427.4541015625
60,94.1,8199.25
61,95.1,4694.34423828125
62,96.1,36567.37890625
63,97.1,4829.92431640625
64,98.1,3632.0830078125
65,99.0,301.288940429688
66,99.1,40.6995391845703
67,99.9,16.0259475708008
68,100.0,318.6103515625
69,100.1,22.5512313842773
70,100.8,14.5075206756592
71,101.0,296.573822021484
72,102.0,1194.47692871094
73,103.0,12043.533203125
74,104.0,17208.765625
75,105.0,62327.32421875
76,106.1,9779.5419921875
77,107.0,1347.3388671875
78,108.0,386.762268066406
79,108.1,316.496368408203
80,109.0,112.708984375
81,110.0,486.416748046875
82,111.0,238.756530761719
83,111.9,61.3260765075684
84,112.0,997.404541015625
85,113.0,147.171508789063
86,114.0,144.229568481445
87,114.1,116.636123657227
88,115.0,2599.75854492188
89,116.0,1432.98657226563
90,117.0,7528.7568359375
91,118.0,14722.1259765625
92,119.0,5069.0361328125
93,120.0,3176.50659179688
94,120.9,23.550952911377
95,121.0,282.544403076172
96,121.9,13.4876403808594
97,122.0,150.485794067383
98,123.1,81.2915725708008
99,123.9,28.0813064575195
100,124.0,176.852478027344
101,124.1,13.539909362793
102,124.9,104.306015014648
103,126.0,45.2612991333008
104,126.0,85.4625778198242
105,126.9,122.380798339844
106,127.0,271.919128417969
107,128.1,1143.26965332031
108,129.0,1743.79272460938
109,130.0,16905.416015625
110,131.1,11840.4580078125
111,132.1,26536.318359375
112,133.0,4061.75146484375
113,134.1,4467.5166015625
114,135.0,547.996337890625
115,137.0,936.96875
116,138.0,357.44140625
117,139.0,1426.53955078125
118,140.0,204.342041015625
119,141.0,159.00390625
120,142.0,483.069641113281
121,143.0,2315.71508789063
122,144.1,8308.2900390625
123,145.0,129.898834228516
124,145.1,4665.58984375
125,146.1,255481.5625
126,147.1,30019.447265625
127,148.1,4268.294921875
128,149.0,487.10693359375
129,150.0,157.79704284668
130,150.2,41.9799041748047
131,151.0,147.854034423828
132,152.0,507.944305419922
133,153.0,103.063049316406
134,153.9,19.9519271850586
135,154.1,270.561279296875
136,155.0,379.8427734375
137,156.0,1215.38098144531
138,157.0,1032.10522460938
139,158.1,37224.2734375
140,159.0,5211.59765625
141,160.0,8493.677734375
142,161.0,5803.68798828125
143,162.0,2408.90283203125
144,162.9,52.430419921875
145,164.1,62.5004692077637
146,164.9,106.025512695313
147,165.8,32.0038223266602
148,165.9,61.0695037841797
149,166.1,29.5710258483887
150,166.9,282.017822265625
151,168.0,346.719482421875
152,168.9,372.314422607422
153,170.0,838.896545410156
154,170.9,445.695556640625
155,172.1,3185.72534179688
156,173.0,1637.42138671875
157,173.9,23.193323135376
158,174.0,306.1240234375
159,174.1,455.594940185547
160,175.0,73.3481140136719
161,175.1,325.167083740234
162,175.9,58.1663360595703
163,176.0,45.6391754150391
164,176.1,29.2463417053223
165,177.0,151.732666015625
166,177.8,11.9072380065918
167,178.1,70.1003952026367
168,178.9,45.2868804931641
169,179.9,185.526123046875
170,180.9,17.80615234375
171,182.0,784.188171386719
172,182.9,270.7607421875
173,184.1,6873.8017578125
174,185.1,6465.59912109375
175,186.1,13730.3623046875
176,187.1,11593.51171875
177,188.2,12592.208984375
178,189.1,351565.4375
179,190.1,48787.8125
180,191.1,5370.619140625
181,192.0,133.557678222656
182,194.0,604.382141113281
183,196.0,148.666442871094
184,196.9,42.498779296875
185,198.0,224.326965332031
186,198.9,111.8798828125
187,199.9,38.1239624023438
188,200.0,771.857421875
189,200.9,89.321044921875
190,202.0,556.946533203125
191,202.9,0.686767578125
192,203.7,35.8583106994629
193,203.9,6.52637481689453
194,205.0,90.7614059448242
195,205.9,34.0989646911621
196,210.0,53.9798583984375
197,210.1,63.7223320007324
198,212.0,311.767578125
199,213.0,490.481201171875
200,214.1,63111.14453125
201,215.0,7817.8515625
202,216.0,653.23828125
203,218.1,395.111755371094
204,221.9,21.3233451843262
205,223.9,99.6960601806641
206,224.9,55.9422607421875
207,225.9,76.2547302246094
208,226.0,15.2400665283203
209,226.1,72.9550170898438
210,227.0,125.215942382813
211,228.1,2717.59716796875
212,229.0,1234.00024414063
213,230.0,312.069091796875
214,231.0,278.267364501953
215,231.9,23.8477268218994
216,235.0,31.33447265625
217,236.1,23.1775360107422
218,239.9,255.66796875
219,240.9,29.05078125
220,241.9,39.3946533203125
221,243.0,857.375305175781
222,243.8,0.527858734130859
223,244.0,148.85237121582
224,244.2,34.9831733703613
225,244.9,99.0500564575195
226,246.1,35.3251419067383
227,247.0,160.547668457031
228,248.1,17.632194519043
229,248.9,28.1873435974121
230,249.9,55.2925033569336
231,250.0,82.5724411010742
232,250.2,19.8798904418945
233,251.0,425.972900390625
234,251.9,43.7163352966309
235,252.0,43.8134994506836
236,252.9,66.483642578125
237,253.9,35.8114395141602
238,254.0,76.7809829711914
239,255.0,212.905456542969
240,255.1,1121.48779296875
241,257.2,591642
242,258.1,109800.1875
243,259.1,11415.34765625
244,260.0,271.7177734375
245,260.2,530.610046386719
246,260.8,165.08366394043
247,261.8,1.10754776000977
248,261.9,86.050910949707
249,262.9,65.7831573486328
250,263.9,49.3854866027832
251,264.8,78.1703338623047
252,266.0,12.9484024047852
253,266.9,100.639877319336
254,268.1,17.5232067108154
255,269.0,96.0455322265625
256,270.0,148.510559082031
257,270.9,120.270629882813
258,272.0,241.94303894043
259,275.9,57.9981307983398
260,276.9,127.790283203125
261,277.9,0.605987548828125
262,278.0,129.47346496582
263,279.1,2124.92431640625
264,280.0,503.257202148438
265,280.3,87.2838821411133
266,281.9,51.5524291992188
267,283.0,216.404296875
268,283.9,3.94603204727173
269,284.0,12.6395168304443
270,285.0,26.77587890625
271,286.0,21.6573486328125
272,287.0,118.820945739746
273,288.0,62.7807846069336
274,289.0,111.3505859375
275,290.0,10.611572265625
276,291.0,45.9925537109375
277,292.1,0.450836181640625
278,293.9,83.50732421875
279,295.0,185.188720703125
280,296.0,99.5383911132813
281,296.1,20.0728302001953
282,297.9,47.4065551757813
283,298.9,4.74578857421875
284,299.6,17.0026512145996
285,300.9,87.2896118164063
286,301.9,40.246654510498
287,303.0,45.2209930419922
288,304.8,2.56013488769531
289,304.9,44.0971298217773
290,307.0,30.9591064453125
291,307.1,297.154541015625
292,307.9,18.7578582763672
293,308.0,120.64860534668
294,308.8,56.6088752746582
295,308.9,79.8492279052734
296,309.9,40.9046669006348
297,310.1,21.2710380554199
298,310.9,92.2147674560547
299,313.0,79.1797943115234
300,314.9,48.1058044433594
301,315.9,14.7190399169922
302,316.9,66.4297790527344
303,317.0,17.1830081939697
304,326.8,5.88085746765137
305,328.9,146.591598510742
306,329.2,24.4005260467529
307,330.1,21.6468276977539
308,330.2,18.9005966186523
309,331.0,73.8253173828125
310,332.7,25.280668258667
311,332.8,19.0381622314453
312,332.9,42.5592498779297
313,334.7,3.01464557647705
314,334.8,21.794849395752
315,334.9,18.7800025939941
316,340.8,17.5081977844238
317,342.9,7.15317726135254
318,344.9,66.3753051757813
319,345.1,30.5567092895508
320,346.2,3791.74951171875
321,347.1,1324.49670410156
322,348.0,28.1343250274658
323,348.2,91.7297286987305
324,348.2,125.337959289551
325,349.0,392.96826171875
326,350.0,130.532089233398
327,350.9,0.00390625
328,351.0,3.08729553222656
329,353.0,200.577011108398
330,354.9,22.7066383361816
331,363.0,11.1928853988647
332,366.9,18.046817779541
333,367.1,28.8947353363037
334,368.9,25.1350574493408
335,370.8,36.8823089599609
336,370.9,23.2397994995117
337,374.9,17.3052959442139
338,429.2,20.3838272094727
