#"+EI Scan (rt: 16.341-16.391 min, 9 scans) Iso1-10.D  Subtract "
#Point,X(Thompsons),Y(Counts)
0,40.1,1427.58898925781
1,41.1,30956.833984375
2,42.1,31725.92578125
3,43.1,4742.51708984375
4,44.0,17577.48046875
5,45.1,828.645874023438
6,45.8,18.8962116241455
7,49.0,4.92462158203125
8,49.1,41.4436073303223
9,50.0,768.417175292969
10,51.0,3296.35400390625
11,52.0,1077.24560546875
12,53.0,1707.37475585938
13,54.0,2245.75659179688
14,55.0,7538.46533203125
15,56.1,5585.27490234375
16,57.0,3379.04736328125
17,58.0,892.187683105469
18,60.9,84.2957534790039
19,62.0,362.904510498047
20,63.0,1075.64904785156
21,64.0,694.078491210938
22,65.0,5353.18017578125
23,66.0,1052.26281738281
24,66.1,468.962768554688
25,67.0,5898.91064453125
26,68.1,6933.50537109375
27,69.0,78682.078125
28,70.0,14598.58203125
29,71.0,1299.61694335938
30,72.0,62.9102592468262
31,72.2,182.306350708008
32,74.0,186.171997070313
33,75.0,219.500244140625
34,76.1,1123.71899414063
35,77.0,23981.51953125
36,78.0,4395.1796875
37,79.0,13837.5712890625
38,80.0,3232.7177734375
39,81.0,1248.95361328125
40,82.1,7574.0703125
41,83.0,1706.60424804688
42,84.1,3452.65014648438
43,85.0,388.230895996094
44,85.9,65.3813781738281
45,86.0,73.1367111206055
46,86.9,84.3881988525391
47,87.9,47.5453872680664
48,88.0,37.4982833862305
49,88.1,18.8242263793945
50,89.0,1323.12536621094
51,90.0,1344.939453125
52,91.0,17905.333984375
53,92.0,3665.67211914063
54,93.0,16161.5068359375
55,94.0,8725.0791015625
56,95.1,5654.0185546875
57,96.1,40056.24609375
58,97.1,5347.28076171875
59,98.1,3901.81201171875
60,99.0,396.829498291016
61,99.9,68.3065643310547
62,100.0,350.455200195313
63,100.9,60.6544151306152
64,101.0,229.886459350586
65,102.0,1223.986328125
66,103.0,12836.9501953125
67,104.0,19433.53515625
68,105.1,70653.2265625
69,106.0,11090.671875
70,107.0,1517.47998046875
71,108.0,782.448669433594
72,110.0,519.31298828125
73,111.0,329.249969482422
74,112.0,1233.45422363281
75,113.0,142.236328125
76,113.9,54.0171279907227
77,114.1,206.394592285156
78,115.0,3122.49169921875
79,116.0,1674.75988769531
80,117.0,8428.146484375
81,118.0,16675.3671875
82,119.0,5491.22119140625
83,120.0,3565.96850585938
84,121.0,384.917846679688
85,121.8,13.0679769515991
86,122.0,223.520309448242
87,122.8,79.2305679321289
88,123.9,82.1281127929688
89,124.0,107.784568786621
90,124.9,61.0262451171875
91,126.0,56.8590621948242
92,126.2,40.7110137939453
93,126.3,18.9894008636475
94,126.9,405.016632080078
95,128.0,520.455261230469
96,128.1,773.1064453125
97,129.0,1740.79919433594
98,130.0,19309.677734375
99,131.1,13429.802734375
100,132.1,30682.267578125
101,133.0,4650.75830078125
102,134.1,4861.1806640625
103,135.0,519.35693359375
104,136.0,350.725372314453
105,138.0,50.02392578125
106,139.0,1514.98217773438
107,140.0,189.236114501953
108,140.1,66.7017059326172
109,141.0,140.233642578125
110,142.0,561.012817382813
111,143.0,2395.78662109375
112,144.1,9125.6904296875
113,145.2,5666.615234375
114,146.1,294215.65625
115,147.1,34631.74609375
116,148.1,4783.3740234375
117,149.0,643.6005859375
118,150.0,234.246200561523
119,151.0,50.803955078125
120,152.0,484.643829345703
121,153.0,6.49028015136719
122,153.1,112.217697143555
123,153.9,332.780487060547
124,154.0,29.9862365722656
125,155.0,65.57763671875
126,156.0,1264.6220703125
127,157.0,1165.79931640625
128,158.1,41879.8359375
129,159.0,5804.796875
130,160.0,9734.71484375
131,161.0,6213.51171875
132,162.0,2580.92407226563
133,162.9,99.978515625
134,163.9,64.6861724853516
135,164.9,118.345916748047
136,166.0,174.418670654297
137,166.9,162.150634765625
138,167.9,233.390823364258
139,168.1,88.6236343383789
140,168.9,317.649383544922
141,170.0,412.891326904297
142,170.1,549.677368164063
143,170.9,441.872314453125
144,172.1,3779.6845703125
145,173.0,1751.08154296875
146,174.0,941.205078125
147,175.0,78.4851379394531
148,175.1,399.836944580078
149,175.9,22.7409648895264
150,176.1,123.406410217285
151,177.0,76.2656555175781
152,177.9,21.2552261352539
153,178.1,25.6756286621094
154,178.9,132.873352050781
155,179.9,113.301330566406
156,180.0,51.3708305358887
157,180.9,22.9739990234375
158,182.0,915.295471191406
159,183.0,373.830352783203
160,184.1,7199.3076171875
161,185.1,6793.337890625
162,186.1,15427.8994140625
163,187.1,12271.11328125
164,188.2,14144.908203125
165,189.1,401665.3125
166,190.1,55938.83984375
167,191.1,5557.5048828125
168,192.0,213.199569702148
169,193.0,4.603515625
170,194.0,99.9117431640625
171,195.9,97.0880126953125
172,197.0,14.39697265625
173,198.0,363.509613037109
174,198.9,96.612548828125
175,200.0,1464.40258789063
176,200.9,197.73486328125
177,201.9,94.3704833984375
178,202.1,92.6169052124023
179,202.8,126.282745361328
180,204.0,30.0839767456055
181,204.1,49.1701927185059
182,204.9,25.8131408691406
183,206.1,73.5530319213867
184,210.1,302.703033447266
185,212.0,295.0888671875
186,213.0,322.756103515625
187,214.1,71426.5703125
188,215.0,9040.7265625
189,216.0,637.619140625
190,218.0,48.4919166564941
191,221.9,14.5560150146484
192,224.0,66.4367599487305
193,225.0,168.025970458984
194,225.7,17.7218399047852
195,225.9,86.7507705688477
196,226.0,38.6329765319824
197,226.2,29.9246788024902
198,227.0,125.403076171875
199,228.1,2825.56884765625
200,229.0,1257.91284179688
201,230.0,397.912048339844
202,231.0,192.798980712891
203,236.1,206.320343017578
204,240.0,128.455108642578
205,241.0,218.720703125
206,242.0,360.406860351563
207,243.0,884.483825683594
208,243.8,5.86788702011108
209,244.0,119.333854675293
210,244.1,29.4323387145996
211,245.0,69.6169052124023
212,245.9,22.0353126525879
213,246.0,20.5128841400146
214,246.9,23.0881500244141
215,247.0,42.0848846435547
216,248.1,15.7137022018433
217,248.8,42.3744621276855
218,249.8,4.38000774383545
219,250.0,124.915550231934
220,250.9,5.5228385925293
221,251.1,238.34326171875
222,251.2,35.6409339904785
223,251.9,64.7265243530273
224,252.9,90.3266296386719
225,254.0,254.621154785156
226,255.1,1346.50671386719
227,255.2,251.220626831055
228,257.2,672381.75
229,258.1,125044.5390625
230,259.1,13017.7646484375
231,260.0,42.6547927856445
232,260.1,957.326538085938
233,261.0,98.2875213623047
234,261.9,84.6592407226563
235,262.8,64.5189514160156
236,263.9,13.8059005737305
237,264.8,36.206714630127
238,265.8,16.9256381988525
239,267.0,49.560546875
240,267.8,32.0650634765625
241,268.0,16.2765769958496
242,268.9,88.4855346679688
243,269.8,59.143913269043
244,269.9,6.56320190429688
245,270.9,43.0284423828125
246,272.0,123.104614257813
247,274.9,114.083251953125
248,275.8,61.5727806091309
249,276.9,226.07421875
250,278.0,450.231994628906
251,279.1,2640.39306640625
252,280.0,236.868225097656
253,280.1,348.684020996094
254,281.0,297.442047119141
255,281.9,7.58073425292969
256,282.9,183.072769165039
257,283.9,2.85432052612305
258,286.9,27.912841796875
259,288.0,10.5603218078613
260,291.9,109.375305175781
261,292.0,117.614303588867
262,293.0,61.3955078125
263,295.0,184.019287109375
264,296.0,78.3273468017578
265,297.9,148.124633789063
266,298.9,12.6122436523438
267,300.0,29.3778228759766
268,301.8,36.3993072509766
269,303.0,120.36483001709
270,305.0,41.4156112670898
271,307.0,343.153350830078
272,307.8,39.032543182373
273,308.1,103.022987365723
274,308.8,10.6388311386108
275,309.0,13.5573196411133
276,310.0,75.5146789550781
277,310.2,6.52397394180298
278,311.0,8.34799194335938
279,311.8,26.3153266906738
280,311.9,46.6431045532227
281,312.8,10.8681039810181
282,312.9,34.7625503540039
283,314.9,102.425811767578
284,315.9,63.2142333984375
285,316.0,7.1954174041748
286,316.7,16.3147125244141
287,316.9,3.18594360351563
288,317.1,14.9095554351807
289,326.9,58.6106452941895
290,328.9,68.4936218261719
291,329.0,21.9269981384277
292,330.1,41.5130653381348
293,331.0,79.8739166259766
294,333.0,90.7263565063477
295,335.0,47.079719543457
296,344.7,5.82027912139893
297,345.0,105.015548706055
298,346.2,4121.0908203125
299,347.0,168.149887084961
300,347.1,1289.22326660156
301,347.9,59.0652885437012
302,348.1,90.0942230224609
303,348.2,164.772216796875
304,348.9,54.8505859375
305,349.1,298.214172363281
306,349.9,38.6316528320313
307,350.1,102.88826751709
308,350.8,13.6753921508789
309,351.0,21.6532669067383
310,352.6,19.0440940856934
311,352.9,29.7782859802246
312,354.9,89.2289886474609
313,356.8,17.4934825897217
314,357.0,7.05615139007568
315,362.9,31.3485622406006
316,366.9,12.3850860595703
317,367.0,19.4240264892578
318,368.9,26.3745136260986
319,369.0,80.8418884277344
320,370.9,1.2113037109375
