#"+EI Scan (rt: 18.892-18.968 min, 13 scans) Iso 1-5A.D  Subtract "
#Point,X(Thompsons),Y(Counts)
0,40.0,680.364868164063
1,41.1,6810.9638671875
2,42.1,28028.2578125
3,43.1,4061.55932617188
4,44.0,13356.455078125
5,45.0,335.061157226563
6,45.9,95.4674987792969
7,48.9,93.8763580322266
8,50.0,814.019287109375
9,51.0,3022.29443359375
10,51.9,66.3794708251953
11,52.0,918.49365234375
12,53.0,1741.22387695313
13,54.0,497.225952148438
14,54.1,1632.49780273438
15,55.0,6352.28125
16,56.0,3787.6943359375
17,57.0,2402.8447265625
18,58.1,354.672882080078
19,58.2,46.6288375854492
20,59.0,1928.8984375
21,60.0,81.6778564453125
22,61.0,88.651741027832
23,61.9,84.6462020874023
24,62.0,174.571823120117
25,63.0,1092.63549804688
26,64.0,819.451843261719
27,65.0,5180.63671875
28,66.0,1248.9404296875
29,67.0,8503.908203125
30,68.0,5678.1552734375
31,69.0,6728.46826171875
32,70.0,7280.2783203125
33,71.0,701.042846679688
34,72.0,63.3945274353027
35,72.1,75.8171157836914
36,73.0,377.62109375
37,74.0,293.89111328125
38,75.0,403.48974609375
39,76.1,954.072814941406
40,77.0,21786.296875
41,78.0,5281.478515625
42,79.0,11328.96484375
43,80.0,2833.07348632813
44,81.0,2475.5029296875
45,82.0,5989.6982421875
46,83.0,1394.71997070313
47,84.1,2155.7666015625
48,85.0,239.940841674805
49,85.8,13.508692741394
50,86.0,146.872024536133
51,87.0,109.859939575195
52,87.9,107.449966430664
53,88.0,64.0230712890625
54,88.2,8.99288368225098
55,89.0,1390.80712890625
56,90.0,964.958618164063
57,91.1,15413.6728515625
58,92.0,2819.73950195313
59,93.0,3124.62084960938
60,94.1,6442.1982421875
61,95.0,317896.53125
62,96.0,57765.48046875
63,97.0,6304.15771484375
64,98.1,4824.72607421875
65,99.0,475.320861816406
66,99.1,16.0827178955078
67,99.9,75.8023223876953
68,100.1,30.0659675598145
69,101.0,280.778839111328
70,102.0,1324.59228515625
71,103.0,10809.0126953125
72,104.0,13786.626953125
73,105.0,49695.875
74,106.0,6233.1796875
75,107.0,1156.19714355469
76,108.0,480.992645263672
77,108.1,138.374389648438
78,109.0,1406.8818359375
79,110.0,629.092956542969
80,111.0,165.717895507813
81,111.9,87.5137329101563
82,112.1,90.5029983520508
83,113.0,194.578735351563
84,113.9,49.6060256958008
85,114.0,228.222625732422
86,115.0,2987.39892578125
87,116.0,1392.04052734375
88,117.0,5550.84033203125
89,118.0,7178.4072265625
90,119.0,4060.26147460938
91,120.0,1884.40026855469
92,121.0,417.241088867188
93,121.9,38.0162200927734
94,122.0,151.618179321289
95,122.9,137.983459472656
96,124.0,752.115234375
97,124.9,223.808990478516
98,126.0,1011.52880859375
99,127.0,627.770080566406
100,128.0,1202.55773925781
101,129.0,1654.15783691406
102,130.0,14133.1552734375
103,131.0,7582.67626953125
104,132.1,14311.1259765625
105,133.0,2078.01708984375
106,134.0,22.651123046875
107,134.1,2595.92309570313
108,135.0,885.6025390625
109,136.0,175.155975341797
110,137.0,13698.65625
111,138.0,3003.1806640625
112,139.0,1190.17724609375
113,139.9,140.406921386719
114,140.0,234.534805297852
115,141.0,617.912109375
116,142.0,900.094848632813
117,143.0,1957.81677246094
118,144.1,3768.43139648438
119,145.0,2357.38159179688
120,146.1,7596.80419921875
121,147.0,1440.31164550781
122,148.0,2270.0068359375
123,148.9,41.0520324707031
124,149.0,406.2548828125
125,150.0,238.880889892578
126,151.0,357.708374023438
127,152.0,372.938812255859
128,153.0,182.64094543457
129,154.0,286.686889648438
130,154.1,269.233276367188
131,155.0,1282.2763671875
132,156.0,1270.31274414063
133,157.0,1065.64721679688
134,158.1,75704.9140625
135,159.0,12927.8828125
136,160.0,6550.06201171875
137,161.0,979.66064453125
138,162.0,448.543975830078
139,162.9,212.82373046875
140,163.8,113.298683166504
141,163.9,6.78131103515625
142,164.9,143.667022705078
143,166.0,241.817932128906
144,166.1,4.18772315979004
145,166.9,494.304443359375
146,168.0,901.160583496094
147,169.0,753.542053222656
148,170.0,20905.935546875
149,171.0,5739.34326171875
150,172.1,2705.66040039063
151,173.0,1460.75146484375
152,174.0,286.614959716797
153,174.1,47.7835426330566
154,175.0,404.781433105469
155,175.1,94.0831069946289
156,175.9,227.885284423828
157,176.1,16.9089431762695
158,178.0,154.113677978516
159,178.1,296.176696777344
160,178.9,154.387908935547
161,179.9,280.106903076172
162,180.1,28.4665241241455
163,180.9,80.669921875
164,182.0,1190.84643554688
165,183.0,693.904479980469
166,184.1,6953.45703125
167,185.1,6767.19580078125
168,186.1,12349.47265625
169,187.1,21197.419921875
170,188.1,9081.51953125
171,189.1,4649.67626953125
172,190.1,640.498474121094
173,191.0,41.048828125
174,192.0,43.6918334960938
175,193.0,191.314208984375
176,194.0,322.959533691406
177,195.0,146.53662109375
178,196.0,368.168212890625
179,197.0,349.17919921875
180,198.0,620.723449707031
181,198.9,221.977783203125
182,199.9,307.029083251953
183,200.9,230.3818359375
184,201.9,68.6411743164063
185,202.9,32.5186767578125
186,203.9,120.591270446777
187,204.0,30.1424827575684
188,204.9,144.76611328125
189,205.9,198.898696899414
190,208.0,14.463623046875
191,209.0,50.888427734375
192,210.0,303.652954101563
193,210.1,209.425994873047
194,211.0,676.1328125
195,212.0,1642.04638671875
196,213.0,391.44287109375
197,215.0,7671.4609375
198,216.0,1575.111328125
199,217.0,995.671875
200,218.0,79.1714172363281
201,219.0,1649.298828125
202,220.0,256.992431640625
203,221.0,265.201171875
204,222.0,378.755401611328
205,222.9,268.486572265625
206,224.0,672.14306640625
207,225.0,325.430328369141
208,225.9,59.9167556762695
209,226.0,408.599151611328
210,226.2,18.5394592285156
211,227.0,250.593627929688
212,228.0,439.269378662109
213,229.0,538.06640625
214,230.0,128.936614990234
215,231.0,93.0840454101563
216,232.0,37.8475799560547
217,233.0,1307.75390625
218,234.0,215.4013671875
219,235.0,251.81396484375
220,237.0,4039.49609375
221,238.0,1574.35546875
222,239.0,2138.42041015625
223,240.1,322189.3125
224,241.1,57967.51953125
225,242.1,6415.171875
226,243.0,1174.015625
227,243.9,51.2180709838867
228,244.0,52.6934623718262
229,244.1,16.7967262268066
230,245.0,456.285888671875
231,245.9,47.6672134399414
232,246.0,7.20113563537598
233,246.8,31.2488098144531
234,246.9,52.8408813476563
235,247.9,37.4891662597656
236,248.0,21.7440147399902
237,248.9,66.9694671630859
238,249.9,53.5728569030762
239,250.0,81.5395736694336
240,250.9,199.113571166992
241,251.9,88.1540222167969
242,252.0,146.509094238281
243,252.9,335.783874511719
244,254.1,2127.48999023438
245,255.0,808.2666015625
246,256.0,122.649154663086
247,256.9,334.9521484375
248,257.9,73.5339508056641
249,258.9,117.756637573242
250,259.9,69.4757766723633
251,260.1,43.721565246582
252,260.9,118.892730712891
253,261.9,101.958625793457
254,262.9,168.190444946289
255,263.9,60.4066696166992
256,264.8,56.6615905761719
257,264.9,40.1118698120117
258,265.9,26.2174644470215
259,266.0,69.5617370605469
260,266.1,13.1290187835693
261,267.0,314.497375488281
262,267.9,34.9679260253906
263,268.0,48.1357421875
264,268.1,12.4534673690796
265,269.0,225.609649658203
266,270.0,203.479705810547
267,270.9,381.1142578125
268,271.9,111.292022705078
269,273.0,599.8134765625
270,273.9,186.444458007813
271,274.9,637.615966796875
272,275.9,183.757873535156
273,276.9,562.94775390625
274,277.9,524.961791992188
275,279.0,139.250030517578
276,279.1,4541.39892578125
277,280.0,68.8095474243164
278,280.1,941.103393554688
279,280.2,82.6155319213867
280,281.0,1320.31677246094
281,283.1,533258
282,284.1,104640.15625
283,285.1,15176.3955078125
284,286.1,1776.03564453125
285,287.0,196.941665649414
286,289.0,1353.69140625
287,290.0,239.0751953125
288,291.0,300.1181640625
289,292.0,72.7765960693359
290,293.0,2087.185546875
291,293.9,613.034912109375
292,295.0,667.899658203125
293,295.8,57.6184883117676
294,296.0,83.2388229370117
295,296.9,586.2392578125
296,297.9,145.168365478516
297,298.9,130.490997314453
298,300.0,73.1813430786133
299,300.1,32.1551971435547
300,300.9,256.909240722656
301,301.8,55.353385925293
302,301.9,37.1313705444336
303,302.0,22.7022895812988
304,302.8,24.7463455200195
305,302.9,76.5073394775391
306,303.9,9.13234424591064
307,304.9,10.4758567810059
308,305.1,64.3534317016602
309,307.0,175.36979675293
310,308.0,99.8278198242188
311,308.9,25.4630126953125
312,309.1,20.0038795471191
313,310.0,46.2696304321289
314,310.1,32.0304832458496
315,311.0,273.305999755859
316,312.0,126.162841796875
317,312.6,12.5992383956909
318,312.8,27.5729217529297
319,313.0,29.3956089019775
320,314.9,210.000305175781
321,315.9,64.086669921875
322,317.0,87.7465057373047
323,317.0,55.9627265930176
324,318.7,11.6819400787354
325,318.9,7.06550407409668
326,319.0,22.9413623809814
327,324.7,12.9821729660034
328,325.0,12.2698564529419
329,326.7,11.1179103851318
330,326.9,89.8689422607422
331,328.7,7.51961040496826
332,328.8,58.7709197998047
333,328.9,12.9859924316406
334,330.9,50.7903671264648
335,331.0,57.7352066040039
336,332.8,95.7784423828125
337,334.7,4.9775915145874
338,334.9,104.095909118652
339,335.8,11.6854343414307
340,336.8,8.92013454437256
341,337.0,13.0352754592896
342,341.0,75.7178039550781
343,342.9,10.2286720275879
344,344.9,67.7120208740234
345,345.0,15.7089395523071
346,345.8,12.7840175628662
347,345.9,10.4618253707886
348,346.1,12.440710067749
349,346.8,14.2911338806152
350,346.9,20.6111068725586
351,347.1,38.5078659057617
352,348.9,119.533493041992
353,349.8,12.574104309082
354,350.1,28.226505279541
355,350.9,159.601531982422
356,351.0,1.83848190307617
357,351.7,25.5236949920654
358,351.9,14.846492767334
359,353.0,126.188133239746
360,353.8,13.0315656661987
361,354.1,16.5550346374512
362,354.9,157.089294433594
363,355.9,85.4664993286133
364,356.0,7.5253791809082
365,356.8,25.6416282653809
366,357.0,109.091735839844
367,357.1,21.0515174865723
368,358.8,2.11133670806885
369,359.0,11.2725982666016
370,362.9,27.2537517547607
371,363.0,41.8150062561035
372,364.9,45.1551971435547
373,366.8,22.1938304901123
374,366.9,98.2508926391602
375,367.1,13.9684448242188
376,367.9,76.0498199462891
377,368.8,34.8841819763184
378,368.9,76.9235534667969
379,370.9,251.498443603516
380,372.1,2928.03662109375
381,373.1,1168.15661621094
382,374.0,84.3100433349609
383,374.1,180.676971435547
384,374.4,16.1833209991455
385,375.0,143.369583129883
386,375.1,32.9021453857422
387,425.0,11.0265312194824
