#"+EI Scan (rt: 16.767-16.818 min, 9 scans) Iso2-1.D  Subtract "
#Point,X(Thompsons),Y(Counts)
0,40.1,1788.39233398438
1,41.1,27698.23828125
2,42.1,36175.93359375
3,43.1,5440.4970703125
4,44.1,18200.80859375
5,45.0,507.933471679688
6,46.1,16.5621509552002
7,48.9,30.0272521972656
8,49.0,11.9263153076172
9,50.0,902.227661132813
10,51.0,3799.92846679688
11,52.0,1166.365234375
12,53.0,2130.91796875
13,54.0,2737.38159179688
14,55.1,8170.59033203125
15,56.1,6357.00634765625
16,57.0,3844.7744140625
17,58.1,740.767028808594
18,60.0,6.56512451171875
19,60.9,163.596725463867
20,61.9,69.7156372070313
21,62.0,262.014831542969
22,63.0,1341.375
23,64.0,924.850158691406
24,65.0,6325.0927734375
25,66.0,1818.85522460938
26,67.0,7028.4013671875
27,68.1,8870.5263671875
28,69.0,134417.953125
29,70.1,19549.458984375
30,71.0,1701.923828125
31,71.8,17.2967109680176
32,71.9,50.636360168457
33,72.1,122.944061279297
34,74.0,295.845336914063
35,75.0,185.1767578125
36,76.0,1299.00451660156
37,77.0,28531.28125
38,78.0,4694.296875
39,79.0,15610.458984375
40,80.0,3848.89770507813
41,81.0,1155.93115234375
42,82.0,8075.3984375
43,83.0,2134.21508789063
44,84.0,4590.56103515625
45,85.0,305.560241699219
46,85.1,174.609893798828
47,85.9,178.120086669922
48,86.2,18.8518161773682
49,86.9,201.604766845703
50,87.9,120.24178314209
51,88.0,31.1537609100342
52,89.0,1567.37097167969
53,90.1,1661.81262207031
54,91.0,21051.7734375
55,92.0,4218.42626953125
56,93.0,15557.232421875
57,94.1,10727.1435546875
58,95.1,5745.77294921875
59,96.1,60361.69140625
60,97.1,6015.943359375
61,98.1,7063.8828125
62,99.0,594.237182617188
63,100.0,834.918640136719
64,101.0,265.157470703125
65,101.1,27.5754985809326
66,101.2,46.4986534118652
67,101.9,44.3433990478516
68,102.0,1433.17163085938
69,103.0,15060.341796875
70,104.0,23262.794921875
71,105.0,79698.3671875
72,106.1,11814.37109375
73,107.0,1454.65771484375
74,108.0,852.871398925781
75,110.0,641.514587402344
76,111.0,297.183471679688
77,112.0,1020.14154052734
78,112.1,201.784393310547
79,113.0,193.774841308594
80,113.8,21.8078918457031
81,113.9,147.886566162109
82,114.1,175.031234741211
83,115.0,3381.1591796875
84,116.0,1947.65588378906
85,117.0,10135.126953125
86,118.0,19325.634765625
87,119.0,5976.91064453125
88,120.0,3729.63745117188
89,121.0,91.5426712036133
90,121.1,593.582824707031
91,121.9,14.6403961181641
92,122.0,287.971008300781
93,122.9,141.204345703125
94,123.7,20.7288665771484
95,123.9,277.4765625
96,124.0,2.41583251953125
97,125.0,121.366111755371
98,125.7,16.8322105407715
99,125.8,13.3276081085205
100,125.9,104.877670288086
101,127.0,675.160461425781
102,128.0,840.848327636719
103,128.1,1068.52160644531
104,129.0,1838.75732421875
105,130.0,23412.732421875
106,131.0,15224.1650390625
107,132.1,34068.01171875
108,133.0,5062.857421875
109,134.1,5768.85400390625
110,135.0,660.0234375
111,136.1,52.6578140258789
112,138.0,407.91796875
113,139.0,3424.39672851563
114,140.0,426.843872070313
115,141.0,158.290771484375
116,141.9,573.573364257813
117,142.1,132.308746337891
118,143.0,2690.54248046875
119,144.1,13275.982421875
120,145.1,7941.3154296875
121,146.1,323701.53125
122,147.1,37484.38671875
123,148.1,6406.130859375
124,149.0,703.764770507813
125,149.9,194.514984130859
126,150.1,164.728256225586
127,151.1,185.981384277344
128,152.0,1054.14013671875
129,153.0,146.116638183594
130,153.9,53.8071556091309
131,154.0,370.882049560547
132,155.0,106.20166015625
133,156.0,1710.19958496094
134,157.0,1235.32177734375
135,158.1,63898.54296875
136,159.0,8536.93359375
137,160.1,17987.98828125
138,161.0,8454.470703125
139,162.1,4378.64892578125
140,163.0,376.858642578125
141,163.8,5.20742416381836
142,163.9,46.6257934570313
143,164.9,115.711517333984
144,165.8,27.172794342041
145,165.9,136.570755004883
146,166.1,17.7617645263672
147,167.0,225.039794921875
148,168.0,215.422698974609
149,168.1,251.468856811523
150,169.0,284.801391601563
151,170.0,1156.97094726563
152,170.9,428.815551757813
153,172.1,4475.861328125
154,173.1,2098.05224609375
155,174.1,896.439697265625
156,174.2,39.6225318908691
157,175.0,452.171417236328
158,175.1,209.673141479492
159,175.9,117.709732055664
160,176.1,61.5393371582031
161,176.8,66.4115753173828
162,178.0,115.877334594727
163,178.8,33.8286895751953
164,179.0,7.33525466918945
165,180.0,294.577972412109
166,180.9,11.0421142578125
167,182.0,1062.37133789063
168,183.0,373.261871337891
169,184.1,9221.6328125
170,185.1,7530.93408203125
171,186.1,20592.263671875
172,187.1,16747.4296875
173,188.2,15798.78515625
174,189.1,431704.09375
175,190.1,60161.796875
176,191.1,6224.5751953125
177,192.0,175.358444213867
178,193.9,36.4624862670898
179,194.0,109.452484130859
180,196.0,277.59375
181,197.0,168.43408203125
182,198.0,268.522033691406
183,198.0,503.080749511719
184,198.9,118.070068359375
185,200.0,909.770874023438
186,200.9,21.333740234375
187,202.0,791.45361328125
188,202.9,53.356689453125
189,203.9,160.420684814453
190,204.1,31.1526947021484
191,206.1,115.003448486328
192,209.0,23.8516845703125
193,212.0,616.94677734375
194,213.0,607.5068359375
195,214.1,93388.1953125
196,215.0,11833.9765625
197,216.0,771.1064453125
198,218.0,130.967681884766
199,222.1,134.89924621582
200,224.1,53.5205574035645
201,225.0,160.375503540039
202,226.1,178.996734619141
203,226.2,164.533050537109
204,227.0,1188.77319335938
205,228.1,574.806762695313
206,228.1,2895.8994140625
207,229.0,1050.57788085938
208,230.0,243.831939697266
209,231.0,307.519958496094
210,236.0,106.808303833008
211,239.0,34.6533203125
212,240.0,144.123107910156
213,241.0,680.55517578125
214,241.9,114.771423339844
215,242.9,95.3219299316406
216,243.9,67.0359802246094
217,244.1,13.9379453659058
218,245.9,78.2071151733398
219,246.0,18.6758136749268
220,246.9,41.8180160522461
221,247.9,19.8491744995117
222,248.1,39.5596771240234
223,249.0,304.046020507813
224,249.8,6.153639793396
225,250.1,102.916976928711
226,251.0,420.646057128906
227,252.0,42.9185218811035
228,252.1,103.115898132324
229,252.9,102.757232666016
230,253.8,7.50862884521484
231,254.1,281.078582763672
232,255.1,2079.109375
233,257.2,745400.3125
234,258.2,138399.390625
235,259.2,14485.455078125
236,260.1,1229.24377441406
237,261.1,49.5435829162598
238,261.9,103.241912841797
239,262.1,17.3487892150879
240,262.9,28.973014831543
241,263.8,21.3094387054443
242,264.0,18.7633266448975
243,265.0,96.2597122192383
244,265.9,6.25049304962158
245,266.1,16.7561531066895
246,267.0,56.5630950927734
247,267.9,53.6484413146973
248,270.0,72.4714660644531
249,271.9,54.0704345703125
250,274.9,82.564697265625
251,276.1,60.7090263366699
252,276.9,242.207763671875
253,278.0,673.996826171875
254,278.1,97.1126937866211
255,279.1,9285.6064453125
256,280.2,2153.10473632813
257,281.0,187.204345703125
258,282.0,188.013305664063
259,283.0,141.630233764648
260,283.9,79.15478515625
261,286.0,225.596588134766
262,287.0,61.0130767822266
263,288.1,3.49088859558105
264,291.0,69.3004150390625
265,293.0,79.25390625
266,295.9,187.760650634766
267,296.9,47.329345703125
268,297.9,10.9621429443359
269,298.9,69.0128173828125
270,299.7,16.9531002044678
271,299.8,17.2910842895508
272,300.1,20.6245975494385
273,300.9,69.6592102050781
274,302.0,16.8391647338867
275,302.9,63.077278137207
276,304.0,35.8547210693359
277,304.1,17.1427574157715
278,304.7,39.1592025756836
279,304.9,25.007453918457
280,305.0,12.3561954498291
281,307.0,110.636222839355
282,307.1,27.5978622436523
283,307.9,77.0153045654297
284,308.0,66.2344131469727
285,308.9,44.6149559020996
286,308.9,25.3653717041016
287,310.9,55.6475372314453
288,311.8,11.916711807251
289,311.9,20.7434844970703
290,312.8,34.7084159851074
291,312.9,29.890193939209
292,313.1,40.0626602172852
293,314.9,69.1706695556641
294,316.0,102.044891357422
295,316.8,29.4730033874512
296,317.0,14.4549140930176
297,317.1,20.4783973693848
298,318.9,12.884256362915
299,324.9,21.7440643310547
300,326.7,29.6204166412354
301,326.9,43.5629425048828
302,327.0,13.0370121002197
303,328.0,59.7919921875
304,328.8,31.611759185791
305,329.0,113.497634887695
306,329.1,23.7607498168945
307,329.9,21.4676818847656
308,330.1,196.269760131836
309,330.2,88.1204147338867
310,330.6,23.0532398223877
311,331.0,127.781219482422
312,331.1,25.2768287658691
313,331.9,22.3852424621582
314,332.0,86.2708892822266
315,332.3,18.7392196655273
316,332.9,9.28771209716797
317,333.0,105.45149230957
318,334.8,44.0808334350586
319,336.8,17.4599876403809
320,338.9,6.71656227111816
321,341.0,115.833862304688
322,342.0,34.4035453796387
323,342.9,24.5162467956543
324,344.9,34.902458190918
325,345.0,18.1284713745117
326,346.2,3232.03955078125
327,347.2,1278.54724121094
328,348.0,46.279712677002
329,348.1,220.05680847168
330,348.3,60.1352729797363
331,349.0,370.631622314453
332,349.1,367.4580078125
333,350.0,3.36391448974609
334,350.2,137.858474731445
335,350.9,51.3042907714844
336,351.0,33.0699615478516
337,352.8,144.289337158203
338,354.9,164.378662109375
339,355.7,17.4349002838135
340,355.9,58.3383979797363
341,356.8,49.5842666625977
342,356.9,40.4477195739746
343,363.0,4.28655242919922
344,364.9,17.8071212768555
345,366.8,9.97056579589844
346,366.9,32.1609802246094
347,368.9,37.896484375
348,370.9,90.5845336914063
349,373.0,17.6040000915527
350,428.9,100.71240234375
351,429.1,21.345251083374
