#"+EI Scan (rt: 19.102-19.185 min, 14 scans) Iso2-2.D  Subtract "
#Point,X(Thompsons),Y(Counts)
0,40.0,339.624755859375
1,41.1,5213.9658203125
2,42.1,22394.162109375
3,43.1,3020.28149414063
4,44.0,9770.2978515625
5,45.0,298.798248291016
6,45.9,48.8854370117188
7,47.0,1.38999176025391
8,49.0,66.1992874145508
9,50.0,638.637939453125
10,51.0,2739.900390625
11,52.0,675.319702148438
12,52.1,178.762344360352
13,53.0,1566.11987304688
14,54.0,1666.93615722656
15,55.1,5374.5419921875
16,56.0,3042.82177734375
17,57.0,1700.82849121094
18,58.0,39.3808441162109
19,58.1,385.220947265625
20,59.0,516.982421875
21,60.0,40.3524131774902
22,60.9,34.1121978759766
23,61.0,23.6733322143555
24,61.1,17.0262432098389
25,61.9,37.8608055114746
26,62.0,266.330657958984
27,63.0,870.036499023438
28,64.0,624.807922363281
29,65.0,4279.75732421875
30,65.9,78.5785751342773
31,66.0,894.152587890625
32,67.0,5955.26171875
33,68.0,4438.7734375
34,69.0,5068.9267578125
35,70.1,5134.943359375
36,71.0,583.201843261719
37,71.7,13.7436904907227
38,71.8,20.2233104705811
39,71.9,26.2986946105957
40,72.0,7.89568328857422
41,73.0,209.8857421875
42,74.0,265.779418945313
43,75.0,233.571533203125
44,76.0,898.1064453125
45,77.0,17318.58203125
46,78.0,3672.32421875
47,79.0,8704.1943359375
48,80.0,2211.63110351563
49,81.0,3833.5595703125
50,82.0,4864.90966796875
51,83.0,1264.96911621094
52,84.1,1761.00769042969
53,85.0,195.781158447266
54,86.0,86.8013153076172
55,86.1,31.7213439941406
56,86.9,62.773998260498
57,87.1,39.8569412231445
58,87.8,53.5081062316895
59,87.9,7.97500371932983
60,88.0,65.5924606323242
61,89.0,1101.51196289063
62,90.0,968.481384277344
63,91.0,12647.7998046875
64,92.0,2358.93237304688
65,93.0,2879.74682617188
66,94.1,5702.63427734375
67,95.0,159977.9375
68,96.0,45794.44921875
69,97.0,5133.5234375
70,98.1,4203.1015625
71,98.9,16.3609085083008
72,99.0,327.763092041016
73,99.8,23.7438163757324
74,100.8,53.1459274291992
75,101.0,214.286071777344
76,101.1,18.1919803619385
77,101.9,50.441535949707
78,102.0,994.773071289063
79,103.0,8837.296875
80,104.0,11939.0498046875
81,105.0,39765.65234375
82,106.1,4825.47216796875
83,107.0,1023.07006835938
84,107.9,83.8941879272461
85,108.1,332.919830322266
86,109.0,1914.59814453125
87,110.0,614.231384277344
88,111.0,148.117858886719
89,111.9,73.3812713623047
90,112.0,94.9414825439453
91,113.0,194.576354980469
92,113.8,16.2137432098389
93,114.0,190.809555053711
94,114.2,56.6717109680176
95,115.0,2763.03662109375
96,116.0,1231.41125488281
97,116.1,23.0270748138428
98,117.0,4636.6953125
99,118.0,6810.8291015625
100,119.0,2759.162109375
101,120.0,1726.87536621094
102,121.0,1699.46899414063
103,121.8,5.79502010345459
104,122.0,305.716674804688
105,122.1,3.64379405975342
106,122.9,52.090576171875
107,123.0,56.9451599121094
108,123.9,446.176818847656
109,124.0,231.521896362305
110,124.9,121.180938720703
111,126.0,1964.79992675781
112,127.0,137.480163574219
113,127.1,462.809722900391
114,127.2,326.953094482422
115,127.9,550.457275390625
116,128.0,595.425354003906
117,128.1,19.7400722503662
118,129.0,1421.01892089844
119,130.0,14388.7919921875
120,131.0,7080.015625
121,132.1,13044.6875
122,133.0,2057.53759765625
123,134.0,1919.41235351563
124,134.1,39.7061195373535
125,135.0,558.594482421875
126,136.1,56.1192779541016
127,137.0,15332.9765625
128,138.0,4604.11328125
129,139.0,1654.54150390625
130,140.1,343.612640380859
131,141.2,579.591796875
132,141.7,1136.5791015625
133,141.8,476.068695068359
134,143.0,1742.22534179688
135,144.1,5218.06591796875
136,145.0,2053.71704101563
137,146.1,5046.4482421875
138,147.0,1209.55737304688
139,148.1,2158.16381835938
140,149.0,252.132064819336
141,149.1,94.9950485229492
142,149.8,18.2053527832031
143,149.9,154.424850463867
144,150.1,69.4728317260742
145,151.0,160.0302734375
146,152.0,238.608581542969
147,152.9,140.547729492188
148,153.9,78.833137512207
149,154.0,257.726104736328
150,155.0,867.3671875
151,156.0,1194.15698242188
152,157.0,1529.306640625
153,158.1,89665.6328125
154,159.0,13083.61328125
155,160.0,7187.3603515625
156,161.0,897.095458984375
157,162.0,354.736602783203
158,162.9,375.523193359375
159,164.0,893.18212890625
160,165.0,344.114349365234
161,165.9,16.2956695556641
162,166.1,70.5569458007813
163,166.9,388.14013671875
164,168.0,284.228149414063
165,168.0,518.021301269531
166,168.9,367.244812011719
167,169.1,379.713897705078
168,170.0,21953.5859375
169,171.0,5579.7314453125
170,172.1,2409.58740234375
171,173.0,1171.35778808594
172,173.8,23.369441986084
173,174.0,110.042137145996
174,174.1,190.784271240234
175,175.0,408.694366455078
176,175.1,30.9949169158936
177,175.9,31.1371955871582
178,176.0,283.284240722656
179,176.9,257.847595214844
180,178.0,200.087524414063
181,178.8,19.2140064239502
182,178.9,12.729736328125
183,179.1,38.6012954711914
184,180.0,92.0015182495117
185,180.1,185.451614379883
186,180.9,68.7869873046875
187,182.0,985.353454589844
188,183.0,785.212524414063
189,184.1,6055.240234375
190,185.1,5353.65966796875
191,186.1,11680.01171875
192,187.1,18279.708984375
193,188.1,7823.14697265625
194,189.1,3011.38671875
195,189.9,37.6799621582031
196,190.1,404.38232421875
197,191.0,50.0244140625
198,192.0,75.6812591552734
199,193.0,58.375
200,193.9,62.4230842590332
201,194.0,175.598724365234
202,195.0,14.54248046875
203,195.9,130.378234863281
204,196.0,202.710876464844
205,197.0,395.829345703125
206,198.0,1000.52581787109
207,198.9,268.914794921875
208,199.9,50.5291442871094
209,200.0,407.887512207031
210,200.9,167.24560546875
211,201.9,262.205505371094
212,203.9,23.729248046875
213,204.0,11.0039205551147
214,204.9,84.2593231201172
215,205.9,43.2627449035645
216,206.0,85.5569458007813
217,207.0,179.4755859375
218,208.0,166.700439453125
219,209.0,181.883941650391
220,210.1,5489.76318359375
221,211.0,895.8203125
222,212.1,21841.6015625
223,213.0,3621.38818359375
224,214.2,136.992874145508
225,215.0,3287.44921875
226,216.0,639.5244140625
227,217.0,427.10595703125
228,218.0,30.0420379638672
229,218.1,79.5894088745117
230,219.0,714.74609375
231,219.9,143.216796875
232,221.0,364.96240234375
233,222.0,412.038848876953
234,222.1,70.7803192138672
235,222.9,221.829711914063
236,223.9,212.337142944336
237,224.0,257.846313476563
238,225.0,290.573394775391
239,225.9,22.0568161010742
240,226.0,380.72802734375
241,227.0,114.379272460938
242,228.0,499.153442382813
243,229.0,393.022705078125
244,230.0,76.142707824707
245,231.0,196.900787353516
246,233.0,296.24609375
247,234.0,49.1318359375
248,235.0,51.1689453125
249,236.1,81.7410736083984
250,237.0,1991.8203125
251,238.0,727.01416015625
252,239.0,792.8115234375
253,240.1,245870.921875
254,241.1,44368.37890625
255,242.1,4854.1298828125
256,243.0,799.931762695313
257,243.9,55.9892997741699
258,244.1,9.8335428237915
259,244.9,86.0730743408203
260,245.8,20.6054229736328
261,245.9,47.7161407470703
262,246.9,71.1963043212891
263,247.0,22.9469928741455
264,248.0,11.5813264846802
265,248.9,16.1617813110352
266,249.1,53.3456954956055
267,249.9,16.4560222625732
268,250.0,64.4383926391602
269,251.0,376.791870117188
270,251.9,9.28006362915039
271,252.0,169.903579711914
272,252.1,12.7613115310669
273,252.9,248.893951416016
274,254.0,854.544311523438
275,255.0,478.932769775391
276,255.8,7.04081869125366
277,255.9,57.6763076782227
278,256.1,0.101398468017578
279,256.9,187.898803710938
280,257.8,21.4929008483887
281,258.0,8.56371688842773
282,258.1,16.0440425872803
283,258.9,163.664611816406
284,259.8,19.8058414459229
285,259.9,21.0696296691895
286,260.9,197.816101074219
287,261.8,22.8362865447998
288,261.9,24.9394645690918
289,262.9,197.929107666016
290,263.8,11.7162761688232
291,265.0,119.563659667969
292,265.8,11.5613269805908
293,266.0,83.4577407836914
294,266.1,30.3885078430176
295,267.0,282.804382324219
296,267.9,58.4972305297852
297,268.0,45.3054542541504
298,268.9,90.7425537109375
299,269.8,18.4215431213379
300,270.0,16.0872192382813
301,270.9,166.0029296875
302,271.8,41.8546562194824
303,271.9,164.173431396484
304,272.9,236.997314453125
305,273.9,76.3195266723633
306,274.9,227.78662109375
307,276.0,111.536346435547
308,276.9,327.377197265625
309,278.0,390.597015380859
310,279.0,144.258041381836
311,279.1,5942.82568359375
312,280.1,1290.8076171875
313,280.2,277.842224121094
314,281.0,2415.99633789063
315,283.1,438296.8125
316,284.1,86633.03125
317,285.1,12285.2314453125
318,286.0,1394.20385742188
319,287.0,301.258483886719
320,287.8,0.216344833374023
321,288.0,51.7913665771484
322,289.0,480.90283203125
323,290.0,147.7880859375
324,291.0,114.783203125
325,292.0,125.321792602539
326,293.0,1000.3037109375
327,293.9,252.90087890625
328,294.9,350.03076171875
329,295.9,12.6021118164063
330,296.0,73.1900253295898
331,296.9,326.998046875
332,297.9,237.210494995117
333,298.9,391.429107666016
334,299.7,5.71694231033325
335,299.9,64.0292053222656
336,300.8,172.705169677734
337,302.9,104.127212524414
338,304.8,33.6817855834961
339,305.1,6.98799467086792
340,306.9,177.311264038086
341,307.8,21.298282623291
342,308.0,13.1944065093994
343,308.9,33.1707992553711
344,309.0,42.0834503173828
345,311.0,558.021179199219
346,311.8,42.9215812683105
347,311.9,84.2963714599609
348,312.9,46.6596908569336
349,313.0,65.7686386108398
350,314.9,130.83268737793
351,315.8,34.2436485290527
352,316.0,7.77053737640381
353,316.8,0.807753562927246
354,316.9,40.9149627685547
355,317.0,16.4380226135254
356,318.9,24.8141574859619
357,319.1,11.0232915878296
358,324.9,10.7497854232788
359,326.8,106.641487121582
360,327.0,68.3622817993164
361,328.7,12.5829925537109
362,328.9,33.7431793212891
363,328.9,31.4091663360596
364,329.9,12.7068147659302
365,330.7,29.1851615905762
366,330.8,46.4744148254395
367,331.0,5.34759140014648
368,332.7,35.4592208862305
369,332.9,28.2399253845215
370,333.1,10.5933361053467
371,334.7,7.18485689163208
372,334.9,12.5115919113159
373,340.9,189.813293457031
374,341.1,25.457462310791
375,342.0,32.9044227600098
376,342.9,22.2844409942627
377,343.0,64.6050186157227
378,344.9,71.6130065917969
379,345.0,55.999885559082
380,346.9,9.04647064208984
381,347.0,14.1731615066528
382,349.0,120.831405639648
383,349.8,14.4759111404419
384,349.9,9.05993938446045
385,350.9,66.5776138305664
386,351.0,43.8347396850586
387,352.9,71.1994094848633
388,353.0,3.44981741905212
389,353.9,11.4838609695435
390,354.0,12.5427522659302
391,355.0,333.300415039063
392,355.9,125.600120544434
393,356.1,124.28450012207
394,356.8,8.11494636535645
395,356.9,108.43522644043
396,357.1,31.3295974731445
397,357.2,19.2734832763672
398,358.9,14.1189756393433
399,359.1,12.3075857162476
400,363.0,52.1867027282715
401,367.0,140.179962158203
402,367.9,14.9984149932861
403,368.8,5.57333183288574
404,369.0,74.9636993408203
405,370.9,45.0380401611328
406,371.0,48.1631088256836
407,372.1,2082.87915039063
408,373.1,805.947448730469
409,374.1,80.3477020263672
410,374.2,64.1464920043945
411,375.0,36.4860229492188
412,375.1,54.5000953674316
413,401.0,26.6690158843994
414,428.8,32.4722595214844
415,428.9,113.81470489502
416,429.1,64.2395782470703
417,430.0,23.0155906677246
418,431.1,11.0186920166016
