#"+EI Scan (rt: 15.768-15.806 min, 7 scans) Iso3-3.D  Subtract "
#Point,X(Thompsons),Y(Counts)
0,40.1,493.766052246094
1,41.1,16273.73046875
2,42.1,39713.59765625
3,43.1,91751.3984375
4,44.1,41185.5390625
5,45.0,1113.45715332031
6,47.0,32.7149047851563
7,48.9,92.7169189453125
8,50.0,736.633117675781
9,51.0,1748.12341308594
10,52.0,834.366027832031
11,53.0,1944.24328613281
12,54.0,3003.7666015625
13,55.1,10321.1953125
14,56.0,7392.203125
15,57.0,5689.962890625
16,58.1,943.794677734375
17,60.0,53.026611328125
18,60.9,78.4555435180664
19,61.1,21.2637176513672
20,62.0,238.526748657227
21,62.0,201.341506958008
22,63.0,998.968017578125
23,64.0,314.296630859375
24,65.0,4440.3369140625
25,66.0,797.689575195313
26,67.1,6703.20654296875
27,68.1,9033.529296875
28,69.1,11755.982421875
29,70.1,20404.41796875
30,71.0,51692.40234375
31,72.1,3577.51318359375
32,74.0,239.646728515625
33,75.0,2548.99291992188
34,76.0,619.08447265625
35,77.0,8433.6484375
36,78.0,1882.69921875
37,79.0,16274.517578125
38,80.0,3710.97509765625
39,81.0,1376.7158203125
40,82.1,10210.388671875
41,83.0,4138.0615234375
42,84.1,5686.12841796875
43,85.0,624.2021484375
44,85.9,51.8152275085449
45,86.0,255.994125366211
46,86.1,33.1195602416992
47,86.9,104.788940429688
48,87.9,83.8461532592773
49,88.0,54.712760925293
50,89.0,1388.02783203125
51,90.0,918.461547851563
52,91.0,17407.486328125
53,92.0,2635.10473632813
54,93.0,859.750061035156
55,94.0,6002.21337890625
56,95.0,22506.388671875
57,96.1,50853.13671875
58,97.1,8657.732421875
59,98.1,4015.02734375
60,99.0,412.711395263672
61,100.0,715.526428222656
62,101.0,776.27392578125
63,102.0,1841.25708007813
64,103.0,15766.451171875
65,104.1,11325.8564453125
66,105.1,89992.09375
67,106.1,8323.5419921875
68,107.0,1179.7314453125
69,108.0,1329.25244140625
70,109.0,7305.626953125
71,110.0,4586.1201171875
72,111.0,13930.37890625
73,112.0,3625.53393554688
74,113.0,418.343627929688
75,114.0,533.67529296875
76,115.0,2513.76489257813
77,116.0,1147.79711914063
78,117.0,3631.0546875
79,118.0,957.999145507813
80,119.0,568.73974609375
81,119.9,88.4344940185547
82,120.0,503.224731445313
83,121.0,2174.10180664063
84,122.0,21379.015625
85,123.0,6795.6630859375
86,124.0,5752.9765625
87,124.9,499.786743164063
88,126.0,503.201385498047
89,126.9,295.928741455078
90,128.0,1090.97888183594
91,129.0,1170.10864257813
92,130.1,6740.44140625
93,131.0,3177.18872070313
94,132.0,4922.83935546875
95,133.0,1455.92358398438
96,134.1,5961.64990234375
97,135.0,6809.35400390625
98,136.0,20591.71484375
99,137.0,4364.578125
100,138.0,2191.017578125
101,139.0,6473.07177734375
102,140.1,1201.98010253906
103,141.0,69.849609375
104,142.0,400.023010253906
105,143.0,893.042846679688
106,143.1,153.929046630859
107,144.0,2615.35473632813
108,145.0,756.225341796875
109,146.0,2996.033203125
110,147.1,1343.48364257813
111,148.0,20626.693359375
112,149.1,18074.994140625
113,150.0,29242.408203125
114,151.0,4741.001953125
115,152.0,2013.416015625
116,153.0,310.514282226563
117,154.1,825.416625976563
118,155.0,161.74951171875
119,156.0,732.482055664063
120,157.0,257.031005859375
121,158.1,2306.49951171875
122,160.0,8703.017578125
123,161.0,1709.91015625
124,162.1,5472.556640625
125,163.1,10154.990234375
126,164.1,382774.1875
127,165.1,45391.27734375
128,166.1,5154.689453125
129,167.0,626.86376953125
130,167.9,149.949645996094
131,168.1,84.3520584106445
132,168.9,134.149719238281
133,170.1,541.285217285156
134,170.9,16.0870361328125
135,172.0,602.174926757813
136,172.9,186.892028808594
137,173.1,79.9507064819336
138,173.9,46.6400718688965
139,174.1,692.595153808594
140,175.1,987.200012207031
141,176.1,14424.041015625
142,177.0,4385.1953125
143,178.1,3464.49658203125
144,179.0,1423.23486328125
145,180.0,736.573852539063
146,181.0,2450.34814453125
147,182.0,3198.10571289063
148,183.0,479.833618164063
149,184.1,6804.46240234375
150,185.0,4944.62646484375
151,186.1,19765.02734375
152,187.1,6459.23583984375
153,188.1,15923.162109375
154,189.1,3089.20532226563
155,190.1,1992.47875976563
156,191.0,769.236328125
157,192.0,1574.42102050781
158,194.0,142.842834472656
159,195.9,2.24609375
160,197.9,73.7574768066406
161,199.9,1.4737548828125
162,201.9,280.527984619141
163,202.9,180.057861328125
164,204.0,451.098785400391
165,204.1,17.8929061889648
166,205.1,10487.904296875
167,206.2,1822.31921386719
168,207.1,507942.03125
169,208.1,71571.1875
170,209.1,4563.99951171875
171,210.1,242.925704956055
172,214.1,418.997772216797
173,216.0,18.4072265625
174,218.0,930.504028320313
175,221.0,43.4423828125
176,222.0,210.731384277344
177,223.8,130.596450805664
178,226.0,62.5665893554688
179,228.0,23.9117736816406
180,228.1,42.8475570678711
181,229.0,212.176513671875
182,230.0,153.569458007813
183,230.2,122.210250854492
184,231.1,1029.75048828125
185,234.1,37620.7734375
186,235.0,5314.24609375
187,236.1,278.825134277344
188,240.0,77.6281127929688
189,241.9,272.268218994141
190,242.9,10.7291259765625
191,244.0,72.1847152709961
192,245.0,181.923889160156
193,246.1,74.7734527587891
194,246.8,103.10245513916
195,248.1,4088.375
196,249.0,694.376098632813
197,249.9,40.0622863769531
198,250.0,151.316986083984
199,250.6,33.9153022766113
200,251.0,296.800994873047
201,252.2,84.8579177856445
202,252.8,125.618293762207
203,254.0,181.257141113281
204,254.9,67.90966796875
205,255.0,3.39691162109375
206,256.1,91.6455307006836
207,256.9,92.052490234375
208,258.0,407.161010742188
209,258.9,331.673217773438
210,260.0,189.257339477539
211,260.2,67.7979278564453
212,261.0,1256.71801757813
213,262.0,164.842636108398
214,262.1,151.594848632813
215,262.7,46.3070602416992
216,264.1,25.3584041595459
217,264.9,89.7222137451172
218,265.9,24.0290985107422
219,266.0,51.4832191467285
220,266.9,50.6650390625
221,268.1,75.2895965576172
222,268.2,86.6832656860352
223,269.0,18.86962890625
224,270.1,117.363731384277
225,271.9,46.3382568359375
226,274.0,18.11376953125
227,274.1,125.811813354492
228,275.0,4138.60791015625
229,277.2,898783.4375
230,278.2,169019.40625
231,279.2,17521.474609375
232,280.1,1445.71411132813
233,282.1,975.085144042969
234,283.1,87.6941680908203
235,286.0,0.902587890625
236,286.9,210.439834594727
237,290.0,42.83642578125
238,291.0,58.1707763671875
239,292.0,154.904434204102
240,292.1,83.975959777832
241,293.9,66.469970703125
242,295.0,105.050537109375
243,296.0,230.825927734375
244,297.0,5278.14990234375
245,298.0,1036.58203125
246,298.9,9.67132568359375
247,300.9,17.3406982421875
248,301.9,26.8755989074707
249,302.8,68.602409362793
250,305.0,56.8853988647461
251,307.0,253.424087524414
252,307.9,54.9026412963867
253,308.0,61.7361946105957
254,308.9,136.593673706055
255,311.0,11.1785888671875
256,312.1,41.0606651306152
257,312.8,24.9010066986084
258,314.1,24.0796375274658
259,314.9,519.122192382813
260,315.9,27.1618270874023
261,316.1,21.9428100585938
262,316.8,3.61370849609375
263,319.1,85.2316360473633
264,320.1,29.7512245178223
265,320.4,27.4431667327881
266,323.0,199.039932250977
267,323.3,36.7666969299316
268,324.9,48.042537689209
269,325.0,226.713943481445
270,325.1,397.302825927734
271,326.0,42.6548500061035
272,326.2,112.473472595215
273,326.8,143.585647583008
274,327.8,24.1306018829346
275,330.6,25.730260848999
276,330.9,1.03285217285156
277,332.8,51.4830322265625
278,337.1,30.134256362915
279,337.3,23.1318912506104
280,341.1,52.9778366088867
281,342.1,47.8217506408691
282,342.8,21.9664440155029
283,344.9,50.9730606079102
284,347.1,46.1458511352539
285,348.0,22.824914932251
286,349.0,65.0018844604492
287,349.9,113.367172241211
288,350.1,152.209762573242
289,351.0,171.793594360352
290,351.8,57.8641738891602
291,352.1,106.212440490723
292,353.1,755.201477050781
293,354.0,162.172256469727
294,356.7,27.386661529541
295,356.8,28.3612785339355
296,359.1,26.6375408172607
297,362.8,51.8024559020996
298,363.0,11.9663009643555
299,363.9,25.4434375762939
300,364.0,47.4120903015137
301,364.8,43.9407615661621
302,365.0,55.648998260498
303,366.2,4081.75244140625
304,367.1,1902.58325195313
305,368.0,272.100891113281
306,368.1,117.151786804199
307,369.1,511.173034667969
308,369.3,132.754364013672
309,370.1,190.85807800293
310,370.9,14.72900390625
311,372.1,23.8074436187744
312,372.8,29.1748065948486
313,400.9,70.2661056518555
314,414.9,54.3244285583496
315,428.8,30.9378757476807
