#"+EI Scan (rt: 15.768-15.807 min, 7 scans) Iso3-5.D  Subtract "
#Point,X(Thompsons),Y(Counts)
0,40.0,92.0653839111328
1,41.1,17330.279296875
2,42.1,41681.25
3,43.1,96940.4765625
4,44.1,43441.51953125
5,45.0,1108.38977050781
6,46.0,30.4946975708008
7,48.9,21.3415412902832
8,50.0,678.17236328125
9,51.0,1683.78149414063
10,52.0,872.186767578125
11,53.0,2085.98022460938
12,54.0,3235.94775390625
13,55.0,10868.0263671875
14,56.1,7790.88330078125
15,57.1,5986.9912109375
16,58.0,1086.51721191406
17,60.0,102.618591308594
18,60.9,113.039993286133
19,61.9,55.150032043457
20,62.0,345.957977294922
21,63.0,1050.58581542969
22,64.0,355.5986328125
23,65.0,4714.67236328125
24,66.0,449.252014160156
25,66.1,359.570098876953
26,67.0,6795.23974609375
27,68.1,9715.806640625
28,69.1,12345.671875
29,70.1,21600.666015625
30,71.1,54980.16015625
31,72.1,3571.6015625
32,74.0,195.117797851563
33,75.0,2816.29052734375
34,76.0,687.485168457031
35,76.1,117.524810791016
36,77.0,9126.650390625
37,78.0,1841.806640625
38,79.0,16996.419921875
39,80.0,3755.8505859375
40,81.0,1199.966796875
41,82.0,10221.466796875
42,83.0,4517.66357421875
43,84.1,6323.01904296875
44,85.0,644.3515625
45,86.0,243.218551635742
46,86.1,97.5904998779297
47,87.0,0.39642333984375
48,87.1,63.5507316589355
49,87.9,13.4338531494141
50,88.0,178.702651977539
51,88.2,29.05100440979
52,89.0,1377.6435546875
53,90.0,1213.384765625
54,91.0,18496.75390625
55,92.0,2760.72705078125
56,93.0,1008.88061523438
57,94.1,6237.794921875
58,95.0,23535.478515625
59,96.1,53480.55859375
60,97.1,8721.8515625
61,98.1,3559.91088867188
62,99.0,316.964202880859
63,100.0,805.988891601563
64,101.0,743.117553710938
65,102.1,1960.07641601563
66,103.0,16160.544921875
67,104.1,12055.6943359375
68,105.1,95576.0859375
69,106.0,8815.43359375
70,107.0,1625.31286621094
71,108.0,1594.84741210938
72,109.0,8222.1484375
73,110.0,3762.67504882813
74,111.0,14635.8642578125
75,112.0,3831.80200195313
76,113.0,546.376953125
77,114.0,208.176727294922
78,114.1,353.224822998047
79,115.0,1843.6572265625
80,116.0,1130.74291992188
81,117.0,3653.35009765625
82,118.0,1139.54711914063
83,119.0,589.280578613281
84,120.1,589.274475097656
85,121.0,2242.1875
86,122.0,22317.328125
87,123.0,6984.787109375
88,124.0,6170.79150390625
89,125.0,901.75927734375
90,126.0,173.487152099609
91,126.1,254.867797851563
92,127.0,323.454437255859
93,128.0,1089.65625
94,129.0,1553.16333007813
95,130.1,7018.765625
96,131.0,3415.23291015625
97,132.1,5369.4775390625
98,133.0,1384.00036621094
99,134.1,6264.53369140625
100,135.0,7298.13671875
101,136.0,21950.169921875
102,137.0,3139.484375
103,138.0,2891.3466796875
104,139.0,7121.435546875
105,140.0,1123.79541015625
106,141.0,139.711181640625
107,142.0,315.125457763672
108,143.0,1005.76525878906
109,144.0,2658.11596679688
110,144.9,94.3850402832031
111,145.0,802.473571777344
112,146.1,2920.05297851563
113,147.0,1015.17584228516
114,148.0,22395.185546875
115,149.0,18656.869140625
116,150.0,31812.828125
117,151.0,5549.61572265625
118,152.0,1944.11499023438
119,153.0,341.031616210938
120,154.0,900.571228027344
121,156.0,727.481811523438
122,157.0,119.3623046875
123,158.0,2575.10791015625
124,160.0,8908.7734375
125,161.0,1800.96362304688
126,162.1,5847.99072265625
127,163.1,10492.9443359375
128,164.1,411165.8125
129,165.1,48626.6875
130,166.1,5448.80615234375
131,167.0,536.748046875
132,168.0,405.945617675781
133,168.9,154.136108398438
134,170.0,486.568420410156
135,170.1,110.34447479248
136,170.9,114.966186523438
137,171.9,144.882141113281
138,172.1,487.122711181641
139,172.8,29.8508033752441
140,173.0,223.315170288086
141,173.9,105.723037719727
142,174.1,596.91796875
143,175.0,647.053588867188
144,175.1,200.493225097656
145,176.1,15211.3994140625
146,177.1,5579.02783203125
147,178.1,3652.2822265625
148,179.0,1533.89392089844
149,180.0,67.2322463989258
150,180.1,416.911224365234
151,181.0,2607.0068359375
152,182.1,3451.40258789063
153,183.0,491.581115722656
154,184.1,6744.93603515625
155,185.1,6225.58056640625
156,186.1,20764.599609375
157,187.1,6686.83447265625
158,188.1,17054.76171875
159,189.1,3311.388671875
160,190.1,2316.31909179688
161,191.0,1176.4951171875
162,192.0,782.379272460938
163,193.0,51.473388671875
164,194.0,248.770935058594
165,196.0,16.3087158203125
166,198.0,19.4760894775391
167,200.0,141.026290893555
168,201.9,124.859001159668
169,202.0,81.9973754882813
170,202.9,141.598876953125
171,204.0,528.395568847656
172,205.1,10897.1025390625
173,207.1,558159.1875
174,208.1,80225.8203125
175,209.1,6550.98193359375
176,214.0,4.41827392578125
177,218.0,1125.95153808594
178,220.0,18.883056640625
179,222.0,615.638244628906
180,222.9,0.38232421875
181,224.0,134.268463134766
182,224.9,38.7662963867188
183,225.9,45.6759376525879
184,226.0,44.3739051818848
185,226.2,28.4504070281982
186,227.9,143.207824707031
187,229.0,215.999267578125
188,230.0,423.640502929688
189,231.0,1192.57751464844
190,232.1,442.588928222656
191,234.1,50164.2578125
192,235.0,6276.9453125
193,236.1,808.483032226563
194,241.9,61.4364242553711
195,242.9,43.2502288818359
196,245.8,30.2922630310059
197,246.0,103.373718261719
198,246.1,45.9872741699219
199,247.1,132.379364013672
200,248.1,4422.90087890625
201,249.1,1098.85632324219
202,250.0,203.509490966797
203,251.0,66.6963424682617
204,252.0,18.1119842529297
205,252.2,24.6579113006592
206,254.0,321.55419921875
207,255.8,15.8457794189453
208,256.0,2.64083623886108
209,258.0,528.446716308594
210,259.0,525.001647949219
211,260.0,143.632858276367
212,260.2,28.5554046630859
213,261.1,1286.25109863281
214,261.9,115.49983215332
215,262.1,159.318817138672
216,262.6,53.1019287109375
217,262.9,27.4980773925781
218,264.0,38.2444648742676
219,264.9,51.6370582580566
220,266.1,22.4084358215332
221,266.9,94.1553649902344
222,267.9,1.1596565246582
223,268.0,63.9912910461426
224,269.0,148.714401245117
225,269.9,4.14936828613281
226,270.0,76.3682250976563
227,270.9,61.2364501953125
228,271.9,52.1064834594727
229,274.0,467.890045166016
230,274.2,139.016799926758
231,275.0,4329.109375
232,277.2,968751.375
233,278.2,183365.859375
234,279.2,18652.755859375
235,280.0,90.9320526123047
236,280.1,1271.69567871094
237,282.0,220.618743896484
238,282.1,320.774475097656
239,283.0,208.290023803711
240,283.9,15.1475257873535
241,287.9,19.3287811279297
242,288.0,33.0664482116699
243,291.0,61.595947265625
244,291.9,6.88941955566406
245,295.0,90.234130859375
246,296.1,442.078887939453
247,297.0,5298.49658203125
248,298.0,1273.10070800781
249,299.0,101.142707824707
250,299.9,39.751106262207
251,300.8,57.7653274536133
252,301.8,20.4410457611084
253,302.8,36.9292221069336
254,303.0,105.189384460449
255,304.9,45.9078826904297
256,307.0,3.03857421875
257,307.9,35.220329284668
258,308.1,5.28211402893066
259,308.9,10.1502990722656
260,309.0,5.25631713867188
261,311.1,97.1673202514648
262,312.0,33.6006774902344
263,314.0,40.6429061889648
264,315.9,24.9660968780518
265,316.1,20.3452434539795
266,316.9,16.538501739502
267,319.1,85.9404678344727
268,320.2,79.4816207885742
269,323.1,277.893951416016
270,325.1,749.778381347656
271,326.1,115.791481018066
272,327.0,69.2845840454102
273,329.0,6.08608055114746
274,330.7,29.1746196746826
275,331.0,6.54665184020996
276,332.8,28.7980537414551
277,334.9,34.3545265197754
278,336.8,25.3105945587158
279,337.1,59.3386917114258
280,337.3,26.6790809631348
281,340.8,54.3586082458496
282,344.9,52.2199516296387
283,347.0,61.1688652038574
284,349.0,87.086669921875
285,349.9,142.983184814453
286,350.1,89.2724227905273
287,351.0,19.2194480895996
288,351.9,25.68239402771
289,352.1,50.3945121765137
290,352.2,65.5041885375977
291,353.1,877.1162109375
292,354.0,231.50537109375
293,359.0,13.7549324035645
294,362.6,27.6124839782715
295,365.0,51.509895324707
296,365.2,27.5143775939941
297,366.2,4132.8349609375
298,367.2,2037.33032226563
299,367.9,28.0230445861816
300,368.0,108.814575195313
301,368.2,227.977157592773
302,369.1,592.909423828125
303,370.1,39.090202331543
304,370.9,61.8266983032227
305,428.8,24.1079559326172
306,428.9,3.59235572814941
